-1.8542 -1.82464 -1.01321 -0.396255 0.00955 0.238458 0.475843 0.798925 1.36268 1.43855 1.41908 1.3656 1.28825 1.18983 1.17111 
-4.40724 -4.83202 -3.17717 -1.72853 -0.685005 0.010293 0.735857 1.80768 4.0016 4.34654 4.39204 4.33817 4.18429 3.96746 3.91403 
0.860826 -0.462009 -1.62801 -2.07098 -2.16018 -1.93646 -1.65322 -0.920586 1.88039 2.36437 2.66393 2.93327 3.08246 3.20391 3.21922 
7.07153 6.81834 3.47474 0.804982 -1.06071 -2.12593 -3.13061 -4.09793 -3.25353 -3.21775 -2.95967 -2.56547 -2.14776 -1.6616 -1.48772 
1.82278 3.55844 3.7496 3.13238 2.27593 1.34335 0.343739 -1.16297 -2.44782 -2.8993 -3.09563 -3.17755 -3.12376 -2.99833 -2.85581 
-0.163198 0.669109 1.55196 2.09589 2.35295 2.31722 2.08451 1.15852 -1.47429 -1.90238 -2.17133 -2.40758 -2.54933 -2.64474 -2.67611 
2.57914 2.64322 1.85758 1.40498 1.22025 1.18576 1.06434 0.435886 -2.99858 -3.37503 -3.53041 -3.64035 -3.67935 -3.66766 -3.74414 
-0.825178 -0.095019 0.787349 1.2686 1.55201 1.64518 1.75814 1.66393 -1.29657 -1.65415 -1.8974 -2.13982 -2.3173 -2.48494 -2.57362 
-0.319765 -0.306454 -0.037821 0.282715 0.603282 0.839246 1.06485 1.24598 -1.13587 -1.3364 -1.4614 -1.60553 -1.71893 -1.83841 -1.94675 
0.070926 0.064416 0.006739 0.010957 0.102751 0.203984 0.33996 0.542041 -1.20192 -1.34431 -1.4143 -1.4955 -1.54824 -1.60942 -1.67935 
-2.01789 -1.8666 -1.01553 -0.40358 0.033876 0.271043 0.551 0.987352 0.254467 0.20211 0.12367 0.00101 -0.110726 -0.254465 -0.315194 
-0.412401 -0.802691 -0.966327 -0.927434 -0.778344 -0.610507 -0.417685 -0.052415 -0.200667 -0.145941 -0.105553 -0.097668 -0.097855 -0.123963 -0.16506 
-1.52853 -1.60141 -1.2058 -0.920989 -0.702397 -0.572489 -0.386478 0.006821 0.590002 0.675453 0.699243 0.684771 0.66052 0.603449 0.593874 
-1.49188 -1.79163 -1.5223 -1.23611 -0.988783 -0.814413 -0.60831 -0.1975 0.948359 1.11183 1.18242 1.20887 1.20833 1.17258 1.16908 
-0.658465 -1.03329 -1.18469 -1.2164 -1.18452 -1.12112 -1.02131 -0.735413 0.698747 0.885599 0.995451 1.0777 1.13091 1.15722 1.17884 
-1.61856 -1.79088 -1.41344 -1.13216 -0.951165 -0.852808 -0.716841 -0.399337 1.41237 1.6137 1.69712 1.74508 1.75924 1.74203 1.77248 
-0.48477 -0.906234 -1.10177 -1.1494 -1.14393 -1.09727 -1.03427 -0.829237 1.01847 1.24448 1.37469 1.48341 1.5516 1.59895 1.63568 
-0.777922 -0.9761 -0.913388 -0.867421 -0.856033 -0.848587 -0.814874 -0.657331 1.23923 1.44133 1.54297 1.62836 1.67784 1.70832 1.75682 
-0.589255 -0.840632 -0.819669 -0.766157 -0.742047 -0.717028 -0.684366 -0.557261 1.28094 1.4837 1.58596 1.67414 1.72262 1.75706 1.80043 
0.083846 -0.166348 -0.392115 -0.525651 -0.626273 -0.665531 -0.699468 -0.673257 0.944035 1.12123 1.22464 1.3274 1.39523 1.45901 1.50686 
-0.314414 -0.399012 -0.318478 -0.275261 -0.29146 -0.311753 -0.328143 -0.302754 1.16574 1.31261 1.38032 1.44604 1.48095 1.51087 1.55498 
0.421485 0.23811 0.010773 -0.122868 -0.230485 -0.275361 -0.331282 -0.37772 0.781424 0.908098 0.983091 1.06621 1.1201 1.17784 1.21552 
0.312871 0.289445 0.222194 0.150903 0.057551 -0.002667 -0.069814 -0.143906 0.752629 0.837494 0.880034 0.934782 0.967451 1.00798 1.04328 
0.452858 0.425479 0.34495 0.284473 0.207259 0.163036 0.101361 0.013449 0.630568 0.691351 0.721377 0.764792 0.788609 0.822965 0.848768 
0.802567 0.799004 0.604798 0.45631 0.324656 0.253802 0.164406 0.029955 0.326125 0.352786 0.372199 0.411976 0.438802 0.481113 0.50307 
0.541894 0.643379 0.631044 0.59057 0.519303 0.467696 0.397921 0.274245 0.332872 0.327765 0.319466 0.329908 0.33269 0.351034 0.364957 
0.880048 0.935607 0.768622 0.642717 0.53431 0.477082 0.395717 0.246546 0.024485 -0.002464 -0.011942 0.000507 0.008781 0.036796 0.043455 
0.728112 0.874132 0.812394 0.735016 0.648365 0.591427 0.514679 0.366154 -0.067878 -0.123771 -0.154382 -0.163061 -0.169955 -0.156534 -0.154758 
0.709225 0.850313 0.790035 0.726218 0.659127 0.618103 0.554069 0.412683 -0.207607 -0.279895 -0.318333 -0.336186 -0.349825 -0.342255 -0.349041 
0.78212 0.930308 0.82401 0.725734 0.64183 0.593398 0.52423 0.374955 -0.418785 -0.509381 -0.55308 -0.575607 -0.589348 -0.580949 -0.590847 
0.542737 0.73329 0.730614 0.69792 0.655657 0.622799 0.571809 0.444022 -0.450874 -0.554727 -0.611447 -0.649811 -0.676011 -0.682864 -0.697596 
0.624179 0.776466 0.69933 0.626573 0.57207 0.540308 0.489797 0.363173 -0.63386 -0.744527 -0.799098 -0.835295 -0.857623 -0.860826 -0.879638 
0.447099 0.631077 0.619049 0.580704 0.545457 0.51819 0.476644 0.36509 -0.678909 -0.797645 -0.859519 -0.905674 -0.934685 -0.947258 -0.967828 
0.363032 0.525948 0.515141 0.488275 0.468332 0.45167 0.421497 0.325779 -0.739441 -0.857319 -0.918648 -0.967116 -0.996629 -1.01236 -1.03678 
0.33385 0.482378 0.453615 0.413149 0.389395 0.370691 0.342322 0.254325 -0.814357 -0.932604 -0.991452 -1.03985 -1.06673 -1.08204 -1.10678 
0.164925 0.313867 0.341313 0.338523 0.339163 0.330565 0.314953 0.248116 -0.779994 -0.894819 -0.954847 -1.0077 -1.03871 -1.06163 -1.08688 
0.171331 0.284559 0.273473 0.253545 0.250244 0.243035 0.229905 0.171974 -0.815032 -0.921743 -0.975533 -1.02274 -1.04916 -1.06871 -1.0945 
0.052282 0.165584 0.192169 0.193738 0.203535 0.199459 0.194039 0.152372 -0.761754 -0.862203 -0.914358 -0.962656 -0.990023 -1.01349 -1.03784 
0.005472 0.088529 0.115346 0.123485 0.141593 0.143708 0.146168 0.11912 -0.70838 -0.798478 -0.844961 -0.889771 -0.914608 -0.939491 -0.962797 
-0.024055 0.041055 0.06169 0.067393 0.086023 0.088658 0.094033 0.078325 -0.656996 -0.736538 -0.776874 -0.817883 -0.838596 -0.862433 -0.884089 
-0.119286 -0.066465 -0.015512 0.012898 0.046185 0.055606 0.070302 0.073687 -0.548164 -0.615973 -0.651453 -0.690978 -0.711016 -0.737019 -0.756732 
-0.114798 -0.093343 -0.062456 -0.042385 -0.01062 0.000457 0.018533 0.032259 -0.477429 -0.531711 -0.558836 -0.591099 -0.605898 -0.628721 -0.645852 
-0.189158 -0.173548 -0.121353 -0.087577 -0.046599 -0.031756 -0.008004 0.019536 -0.366995 -0.408132 -0.429587 -0.458714 -0.471434 -0.494086 -0.509213 
-0.220475 -0.227852 -0.177849 -0.140183 -0.094461 -0.07499 -0.045867 -0.005763 -0.266529 -0.293484 -0.306867 -0.329747 -0.339566 -0.359707 -0.372602 
-0.247247 -0.269573 -0.222654 -0.186188 -0.140395 -0.120016 -0.087895 -0.039002 -0.17579 -0.189584 -0.195331 -0.212041 -0.218357 -0.235551 -0.244462 
-0.319096 -0.349872 -0.287406 -0.238291 -0.184857 -0.159168 -0.121314 -0.060138 -0.070608 -0.070565 -0.069871 -0.082209 -0.085857 -0.101702 -0.107782 
-0.332168 -0.383201 -0.33514 -0.290848 -0.240479 -0.213089 -0.174114 -0.105986 0.002941 0.016065 0.025026 0.020375 0.021039 0.009744 0.006025 
-0.38526 -0.442085 -0.385699 -0.336066 -0.283392 -0.255023 -0.21367 -0.139409 0.087377 0.11167 0.127206 0.127056 0.129823 0.120689 0.12063 
-0.419765 -0.48855 -0.436632 -0.387225 -0.334607 -0.304312 -0.261144 -0.182383 0.151821 0.188025 0.209713 0.215508 0.221349 0.215293 0.218849 
-0.442918 -0.520778 -0.475904 -0.430285 -0.381495 -0.35166 -0.309392 -0.228143 0.202628 0.249141 0.2756 0.287424 0.29631 0.293733 0.299741 
-0.477545 -0.560517 -0.513629 -0.466352 -0.418558 -0.388991 -0.34702 -0.263277 0.253992 0.309165 0.340331 0.356097 0.367391 0.367005 0.375223 
-0.472249 -0.564477 -0.531117 -0.491426 -0.45151 -0.424341 -0.385928 -0.304468 0.282413 0.345157 0.380781 0.402035 0.416163 0.419681 0.430383 
-0.47549 -0.569132 -0.537881 -0.5009 -0.466011 -0.441859 -0.406508 -0.328839 0.31357 0.382125 0.419802 0.444484 0.460055 0.46639 0.478794 
-0.45892 -0.555343 -0.532419 -0.501501 -0.471945 -0.451064 -0.41946 -0.347132 0.331737 0.404776 0.444621 0.472524 0.490362 0.498819 0.512832 
-0.421143 -0.519252 -0.505993 -0.482475 -0.461287 -0.444689 -0.419498 -0.354578 0.344369 0.41976 0.460357 0.490918 0.510408 0.520691 0.536318 
-0.375698 -0.473144 -0.465004 -0.44605 -0.431727 -0.419461 -0.399548 -0.342841 0.360767 0.436767 0.476584 0.507955 0.527696 0.539737 0.555979 
-0.311599 -0.406289 -0.408423 -0.39766 -0.391053 -0.383591 -0.36951 -0.322318 0.367493 0.441797 0.480253 0.5134 0.532892 0.546494 0.56285 
-0.244197 -0.333742 -0.339973 -0.334046 -0.333646 -0.33067 -0.322449 -0.283932 0.377916 0.449023 0.485304 0.518608 0.53748 0.550891 0.567267 
-0.159117 -0.244506 -0.258247 -0.258831 -0.265787 -0.267409 -0.264483 -0.235771 0.382638 0.45035 0.484706 0.516529 0.535247 0.549161 0.565291 
-0.078952 -0.153371 -0.171744 -0.177606 -0.190841 -0.195394 -0.197937 -0.179859 0.384348 0.446414 0.477372 0.507693 0.525041 0.539396 0.554743 
-0.001655 -0.065986 -0.086569 -0.094934 -0.111815 -0.118311 -0.125359 -0.115821 0.387037 0.442227 0.469121 0.497092 0.512554 0.526377 0.54031 
0.080214 0.024829 -0.000517 -0.01332 -0.034237 -0.043467 -0.054365 -0.052363 0.381022 0.429287 0.452551 0.477956 0.491696 0.505571 0.518097 
0.142717 0.101851 0.076892 0.062489 0.039482 0.029311 0.015632 0.010506 0.371381 0.412359 0.430987 0.453783 0.465194 0.47811 0.489536 
0.2037 0.17428 0.147261 0.131213 0.105903 0.095128 0.07973 0.06794 0.355111 0.388763 0.4031 0.422852 0.432215 0.443739 0.453706 
0.248646 0.232422 0.206092 0.188915 0.162571 0.151449 0.134711 0.11791 0.331588 0.356785 0.367599 0.383521 0.390783 0.401688 0.410015 
0.270561 0.269061 0.245668 0.22908 0.204363 0.194187 0.177051 0.156792 0.300118 0.317455 0.324294 0.336846 0.341571 0.351415 0.358151 
0.289536 0.298125 0.273961 0.256531 0.232091 0.222636 0.205714 0.18237 0.259665 0.270327 0.273297 0.283107 0.285668 0.294299 0.299205 
0.290134 0.310333 0.288145 0.271012 0.247365 0.239053 0.222581 0.19715 0.21282 0.216367 0.216331 0.222553 0.223524 0.231195 0.234655 
0.277498 0.308501 0.287621 0.270943 0.249111 0.241081 0.225591 0.198089 0.156674 0.154093 0.151234 0.154742 0.153763 0.160527 0.162683 
0.260532 0.298707 0.278375 0.261559 0.240854 0.23303 0.217952 0.188659 0.096942 0.08843 0.082677 0.084253 0.081542 0.087484 0.088075 
0.235623 0.280037 0.261219 0.244526 0.224501 0.217958 0.202651 0.172413 0.035801 0.02156 0.013521 0.012509 0.008636 0.01354 0.012808 
0.212769 0.261452 0.242404 0.224706 0.204966 0.198095 0.182909 0.150949 -0.026979 -0.045384 -0.055567 -0.058798 -0.064235 -0.06019 -0.062118 
0.189787 0.241704 0.222828 0.204769 0.185515 0.177614 0.1625 0.128996 -0.085157 -0.108146 -0.120576 -0.125787 -0.132439 -0.129028 -0.132339 
0.165137 0.219578 0.201557 0.183869 0.164999 0.156869 0.141779 0.107449 -0.139839 -0.166756 -0.181048 -0.188129 -0.195648 -0.193509 -0.197818 
0.151005 0.205017 0.186735 0.167882 0.149019 0.140628 0.1248 0.08932 -0.18823 -0.217851 -0.234016 -0.242586 -0.250454 -0.249912 -0.254481 
0.146277 0.198785 0.180154 0.160074 0.141103 0.131125 0.114372 0.078032 -0.225531 -0.258305 -0.276594 -0.28663 -0.294421 -0.295091 -0.300643 
0.141361 0.193903 0.176572 0.157387 0.138667 0.126647 0.110361 0.073171 -0.254081 -0.289554 -0.309081 -0.320881 -0.329297 -0.331151 -0.337957 
0.145547 0.195994 0.179378 0.160575 0.142645 0.130325 0.113527 0.075552 -0.271865 -0.309821 -0.329536 -0.343102 -0.351679 -0.355016 -0.362174 
0.158436 0.205357 0.189784 0.170518 0.153373 0.141005 0.123363 0.085535 -0.277624 -0.317369 -0.338304 -0.353032 -0.361737 -0.36638 -0.374443 
0.162968 0.209279 0.197556 0.180886 0.165493 0.153217 0.137145 0.100198 -0.274357 -0.315097 -0.337735 -0.353542 -0.363327 -0.369076 -0.377699 
0.168709 0.212744 0.203625 0.189372 0.176986 0.166069 0.151811 0.117442 -0.263291 -0.304546 -0.327096 -0.344031 -0.354214 -0.361323 -0.369779 
0.173765 0.215319 0.208755 0.196367 0.187185 0.177649 0.165283 0.134654 -0.247116 -0.287475 -0.309439 -0.326994 -0.336553 -0.344871 -0.35391 
0.166545 0.207526 0.20563 0.197609 0.191995 0.184011 0.174362 0.147377 -0.226451 -0.266393 -0.288085 -0.306144 -0.315391 -0.324288 -0.333666 
0.158395 0.195053 0.19733 0.192356 0.190684 0.184912 0.177764 0.156087 -0.202088 -0.24091 -0.261472 -0.279829 -0.289484 -0.298631 -0.308088 
0.137537 0.171585 0.178755 0.177499 0.180113 0.177085 0.173675 0.158033 -0.18018 -0.215963 -0.234883 -0.252351 -0.261979 -0.271228 -0.2806 
0.101226 0.134631 0.146365 0.149819 0.157143 0.157705 0.158418 0.148014 -0.160677 -0.193733 -0.2105 -0.227138 -0.236264 -0.245119 -0.254063 
0.064928 0.09361 0.107846 0.114401 0.125714 0.129585 0.133593 0.129429 -0.141859 -0.171418 -0.18559 -0.201587 -0.210284 -0.218698 -0.227074 
0.018683 0.043463 0.060578 0.071705 0.086326 0.092162 0.099913 0.102066 -0.127901 -0.153119 -0.165187 -0.179322 -0.18674 -0.195278 -0.201921 
-0.034993 -0.013958 0.006424 0.020049 0.037988 0.046369 0.056988 0.064657 -0.118318 -0.138771 -0.148034 -0.160985 -0.167007 -0.174903 -0.180541 
-0.08719 -0.071842 -0.050078 -0.035663 -0.015257 -0.004241 0.008632 0.022108 -0.111285 -0.126466 -0.132432 -0.143607 -0.148859 -0.155511 -0.160905 
-0.138599 -0.128967 -0.107259 -0.090777 -0.069281 -0.057647 -0.042675 -0.024301 -0.107529 -0.117907 -0.121575 -0.129442 -0.133238 -0.139404 -0.142773 
-0.180561 -0.178549 -0.157211 -0.141269 -0.120107 -0.108319 -0.092766 -0.071232 -0.104742 -0.109893 -0.110663 -0.116568 -0.118698 -0.12359 -0.125793 
-0.215018 -0.219855 -0.200141 -0.184534 -0.164301 -0.152888 -0.136923 -0.113668 -0.10127 -0.101262 -0.098932 -0.102705 -0.103254 -0.106844 -0.108641 
-0.243701 -0.254026 -0.235845 -0.220355 -0.20119 -0.190627 -0.175245 -0.151234 -0.096576 -0.092348 -0.087726 -0.089088 -0.087885 -0.091161 -0.091039 
-0.254855 -0.27299 -0.257261 -0.244334 -0.227475 -0.217793 -0.204006 -0.180378 -0.087101 -0.079149 -0.072552 -0.07206 -0.070012 -0.071967 -0.070765 
-0.251903 -0.276421 -0.265316 -0.253841 -0.239618 -0.232203 -0.219337 -0.197073 -0.07279 -0.061137 -0.053672 -0.051009 -0.047628 -0.048615 -0.047131 
-0.242311 -0.27065 -0.261476 -0.251948 -0.239767 -0.234405 -0.223948 -0.202726 -0.055508 -0.04059 -0.031744 -0.027807 -0.022899 -0.02332 -0.021578 
-0.216149 -0.250231 -0.243289 -0.236439 -0.22733 -0.22365 -0.215958 -0.196766 -0.030967 -0.014266 -0.004182 0.001082 0.006122 0.00663 0.008668 
-0.179055 -0.216787 -0.213928 -0.207985 -0.202207 -0.200566 -0.194399 -0.177791 -0.000287 0.018081 0.027569 0.033989 0.039855 0.040104 0.043452 
-0.145415 -0.182465 -0.179853 -0.175382 -0.170658 -0.170344 -0.165822 -0.150869 0.03117 0.050436 0.060337 0.066906 0.073316 0.07415 0.077564 
0.02859 0.02079 0.014496 0.007797 0.001187 -0.004723 -0.01045 -0.017536 -0.021155 -0.02127 -0.022312 -0.022091 -0.02141 -0.021669 -0.021582 
0.060022 0.052548 0.046562 0.040919 0.034237 0.028184 0.022107 0.01488 0.000263 -0.001178 -0.003019 -0.002969 -0.002782 -0.003265 -0.003677 
0.081229 0.077167 0.073027 0.068513 0.062501 0.05778 0.052078 0.045349 0.019332 0.016881 0.014772 0.014387 0.01456 0.013826 0.012829 
0.100146 0.097724 0.094597 0.091192 0.08659 0.08242 0.078003 0.072373 0.037626 0.03509 0.032877 0.031336 0.031305 0.030149 0.029208 
0.107345 0.107834 0.106508 0.105624 0.103344 0.100058 0.096991 0.092073 0.053059 0.050515 0.047862 0.045618 0.045064 0.043453 0.042931 
0.099226 0.103518 0.106059 0.107105 0.10709 0.106829 0.104837 0.101855 0.062129 0.058654 0.056114 0.054105 0.052796 0.051539 0.051013 
0.088394 0.09361 0.097382 0.100003 0.101427 0.103101 0.10288 0.103153 0.066143 0.06253 0.060941 0.059098 0.057334 0.056568 0.055383 
0.066588 0.07391 0.078869 0.083134 0.086986 0.089816 0.092315 0.094652 0.063268 0.060553 0.05958 0.057858 0.056395 0.055166 0.053971 
0.034814 0.043839 0.051208 0.05652 0.062352 0.067223 0.071621 0.07536 0.053306 0.051567 0.051022 0.049591 0.047518 0.04715 0.046528 
0.003191 0.011508 0.019184 0.025561 0.031988 0.037944 0.043401 0.048933 0.039235 0.038415 0.038539 0.037743 0.035354 0.035579 0.035344 
-0.031008 -0.022921 -0.015559 -0.00884 -0.001674 0.004595 0.010776 0.018206 0.021602 0.021343 0.022211 0.021539 0.0208 0.020314 0.020375 
-0.059348 -0.05338 -0.047025 -0.041583 -0.034776 -0.028717 -0.022647 -0.014454 0.001799 0.002544 0.004494 0.003786 0.00378 0.004045 0.004729 
-0.081378 -0.077632 -0.072933 -0.068662 -0.063269 -0.058066 -0.052581 -0.045026 -0.018128 -0.016322 -0.013799 -0.013071 -0.013219 -0.012332 -0.011668 
-0.101803 -0.099041 -0.095461 -0.092055 -0.087543 -0.083232 -0.07853 -0.0717 -0.037964 -0.035337 -0.032775 -0.031175 -0.030542 -0.029483 -0.029252 
-0.1066 -0.107573 -0.107077 -0.105708 -0.103238 -0.10068 -0.097327 -0.092632 -0.054198 -0.050512 -0.047865 -0.046006 -0.045201 -0.043535 -0.042328 
-0.098941 -0.102938 -0.105568 -0.106538 -0.106819 -0.10647 -0.105112 -0.103451 -0.062922 -0.059113 -0.057284 -0.0547 -0.053808 -0.052112 -0.050654 
-0.089201 -0.093912 -0.097405 -0.099959 -0.101349 -0.102788 -0.103366 -0.103502 -0.066086 -0.062921 -0.061995 -0.05972 -0.05793 -0.056642 -0.055924 
-0.065945 -0.073071 -0.078884 -0.083158 -0.086563 -0.08959 -0.092022 -0.093982 -0.062985 -0.060652 -0.059592 -0.057697 -0.056061 -0.055216 -0.054441 
-0.03296 -0.041973 -0.049731 -0.055589 -0.061787 -0.066482 -0.070601 -0.074716 -0.052587 -0.050974 -0.050326 -0.048558 -0.047474 -0.046709 -0.04636 
-0.004065 -0.012238 -0.019231 -0.024917 -0.03179 -0.037794 -0.042622 -0.048672 -0.039191 -0.038149 -0.038221 -0.037147 -0.035861 -0.035531 -0.035131 
0.028518 0.020906 0.013487 0.007861 0.000847 -0.005402 -0.011133 -0.01835 -0.022115 -0.02204 -0.0224 -0.022089 -0.02102 -0.02119 -0.020516 
0.060515 0.054241 0.047359 0.041209 0.034264 0.028081 0.021843 0.014167 -0.001174 -0.002219 -0.003738 -0.004084 -0.003326 -0.003783 -0.004232 
0.081826 0.078133 0.074064 0.06924 0.063541 0.057559 0.052844 0.044873 0.019686 0.016676 0.014359 0.013662 0.014186 0.012848 0.011667 
0.100256 0.097613 0.094358 0.091224 0.086995 0.082242 0.078599 0.072057 0.039284 0.03534 0.033143 0.031987 0.031611 0.029843 0.028958 
0.106915 0.107261 0.106225 0.10467 0.102261 0.099669 0.096638 0.092397 0.053533 0.05069 0.048478 0.046716 0.045619 0.043882 0.043136 
0.098328 0.102332 0.105596 0.105869 0.106305 0.105721 0.104503 0.102055 0.061596 0.058731 0.056633 0.054744 0.05348 0.052173 0.050909 
0.08821 0.09245 0.096723 0.098653 0.100999 0.102142 0.102738 0.102563 0.066782 0.063426 0.061395 0.059484 0.058169 0.056993 0.055952 
0.067375 0.073788 0.078851 0.083333 0.086477 0.089726 0.092105 0.094176 0.064292 0.061468 0.060298 0.05841 0.057032 0.055543 0.055199 
0.034887 0.044119 0.05102 0.057017 0.062568 0.067292 0.071107 0.075123 0.05313 0.051537 0.051265 0.049765 0.048242 0.047823 0.046979 
0.003297 0.011626 0.018823 0.025112 0.032316 0.037896 0.042864 0.048786 0.039557 0.039089 0.038848 0.037555 0.036412 0.036259 0.035617 
-0.030272 -0.022717 -0.015266 -0.008417 -0.001628 0.005029 0.011025 0.018516 0.021888 0.022043 0.022859 0.02193 0.021204 0.02079 0.021191 
-0.059059 -0.052733 -0.046879 -0.041224 -0.034567 -0.028111 -0.022484 -0.01444 0.000231 0.00163 0.003649 0.003885 0.003083 0.003846 0.004546 
-0.080646 -0.076472 -0.072515 -0.068697 -0.062865 -0.05776 -0.052694 -0.045679 -0.019488 -0.017364 -0.015353 -0.014075 -0.014225 -0.013213 -0.012441 
-0.101309 -0.098259 -0.094436 -0.091168 -0.086584 -0.082506 -0.078005 -0.072004 -0.038311 -0.035616 -0.033729 -0.031839 -0.031239 -0.029952 -0.029328 
-0.107034 -0.107208 -0.106622 -0.105118 -0.102257 -0.099623 -0.096795 -0.091646 -0.054274 -0.050742 -0.048554 -0.046476 -0.045405 -0.043409 -0.042996 
-0.098915 -0.102613 -0.10507 -0.106319 -0.106661 -0.105975 -0.104896 -0.102314 -0.063426 -0.060082 -0.057607 -0.055923 -0.054392 -0.052566 -0.051842 
-0.088828 -0.093798 -0.09659 -0.099116 -0.101577 -0.102601 -0.103325 -0.103528 -0.068021 -0.064687 -0.062377 -0.060874 -0.059772 -0.05774 -0.056729 
-0.065334 -0.072836 -0.078409 -0.082306 -0.086479 -0.089215 -0.091819 -0.093837 -0.065213 -0.062082 -0.060719 -0.058936 -0.057677 -0.056164 -0.055591 
-0.032327 -0.041209 -0.048989 -0.054575 -0.061227 -0.065648 -0.069779 -0.074189 -0.054794 -0.052341 -0.052236 -0.050547 -0.048839 -0.048369 -0.04791 
-0.003145 -0.010846 -0.017639 -0.023711 -0.030578 -0.03617 -0.0419 -0.048607 -0.04062 -0.039457 -0.039885 -0.039113 -0.037878 -0.037423 -0.036908 
0.029719 0.021528 0.01503 0.008747 0.002407 -0.003544 -0.010023 -0.017888 -0.021207 -0.022073 -0.023049 -0.022811 -0.021942 -0.021911 -0.022093 
0.059907 0.053051 0.046934 0.041353 0.034775 0.029052 0.023151 0.015213 5.8e-05 -0.001619 -0.00342 -0.003494 -0.003551 -0.004231 -0.004651 
0.080449 0.076809 0.07247 0.068199 0.062785 0.057782 0.052649 0.045752 0.019585 0.017416 0.015503 0.014325 0.013796 0.012759 0.012179 
0.100552 0.097693 0.094243 0.090818 0.086674 0.082546 0.078255 0.072248 0.03888 0.035755 0.033666 0.03192 0.032071 0.030335 0.029603 
0.107638 0.107996 0.106583 0.105266 0.102786 0.099786 0.096896 0.09218 0.054358 0.051002 0.048239 0.046446 0.046243 0.044154 0.043686 
0.098078 0.102121 0.104805 0.105851 0.106182 0.105441 0.104334 0.102346 0.062565 0.059475 0.057138 0.055036 0.053795 0.05216 0.051412 
0.087713 0.092093 0.096119 0.098464 0.100714 0.10177 0.102474 0.102587 0.066149 0.063143 0.061804 0.059709 0.058171 0.056742 0.055713 
0.067154 0.074088 0.07895 0.082933 0.086797 0.089154 0.091751 0.09367 0.064506 0.061833 0.060143 0.058494 0.057184 0.055661 0.054583 
0.034555 0.043368 0.051008 0.056704 0.062256 0.066824 0.071261 0.075723 0.054779 0.053078 0.051897 0.050453 0.049302 0.048073 0.047651 
0.002533 0.010329 0.018003 0.02488 0.031736 0.037508 0.043132 0.049092 0.040123 0.039094 0.039459 0.03784 0.036831 0.03626 0.03658 
-0.031407 -0.023323 -0.016822 -0.00984 -0.002401 0.003997 0.010101 0.017522 0.022323 0.022284 0.022915 0.022042 0.021128 0.021548 0.021388 
-0.060291 -0.053568 -0.047891 -0.042358 -0.035648 -0.029196 -0.023194 -0.014453 0.001329 0.002854 0.004589 0.005099 0.004158 0.005078 0.005082 
-0.081413 -0.077098 -0.072961 -0.068862 -0.063248 -0.058294 -0.053026 -0.045527 -0.019047 -0.016953 -0.014129 -0.012822 -0.01363 -0.012317 -0.0116 
-0.101606 -0.098317 -0.09476 -0.09161 -0.087416 -0.083007 -0.07864 -0.072823 -0.0375 -0.035003 -0.032706 -0.031163 -0.031616 -0.029323 -0.028558 
-0.107967 -0.108377 -0.107337 -0.105627 -0.103636 -0.100644 -0.097202 -0.092389 -0.052574 -0.049379 -0.046938 -0.045313 -0.044658 -0.043044 -0.042108 
-0.099672 -0.104079 -0.10663 -0.106943 -0.107351 -0.107429 -0.105851 -0.102975 -0.061553 -0.05838 -0.056029 -0.054032 -0.052269 -0.051781 -0.050626 
-0.088849 -0.093801 -0.097481 -0.09999 -0.101947 -0.103483 -0.104268 -0.103931 -0.066174 -0.062843 -0.061222 -0.059004 -0.057342 -0.05608 -0.055084 
-0.065977 -0.072887 -0.078626 -0.08333 -0.086706 -0.089718 -0.092444 -0.094386 -0.064373 -0.061065 -0.059792 -0.057452 -0.055914 -0.054612 -0.053869 
-0.032213 -0.041403 -0.049017 -0.055406 -0.061324 -0.066107 -0.070552 -0.074892 -0.053614 -0.051898 -0.051225 -0.049152 -0.047587 -0.046841 -0.046039 
-0.003286 -0.010738 -0.017676 -0.024002 -0.030934 -0.036594 -0.042006 -0.04884 -0.03965 -0.039255 -0.03919 -0.037743 -0.036824 -0.036071 -0.035508 
0.028114 0.021189 0.014132 0.007949 0.00157 -0.004981 -0.011001 -0.018573 -0.023411 -0.023277 -0.023843 -0.022749 -0.022037 -0.022303 -0.022402 
0.060865 0.054017 0.047358 0.040955 0.034242 0.028097 0.022032 0.01419 -0.002309 -0.003504 -0.004724 -0.005069 -0.004151 -0.005059 -0.005712 
0.082484 0.07846 0.07386 0.069535 0.063323 0.058311 0.053296 0.045303 0.018912 0.016676 0.014602 0.013165 0.013579 0.012677 0.011762 
0.101068 0.098261 0.094757 0.092039 0.087473 0.082984 0.078586 0.072532 0.037531 0.035536 0.03279 0.031366 0.031267 0.029835 0.028958 
0.109078 0.108862 0.108194 0.106191 0.103608 0.10089 0.097234 0.092417 0.053165 0.0499 0.047493 0.045482 0.044853 0.043203 0.042356 
0.09898 0.102927 0.1061 0.107046 0.10731 0.107081 0.105417 0.102114 0.062229 0.058397 0.055952 0.054143 0.052537 0.050991 0.050271 
0.087115 0.092071 0.095837 0.098682 0.101283 0.102514 0.103418 0.103362 0.065434 0.062621 0.060577 0.058719 0.05681 0.056017 0.054755 
0.06739 0.074272 0.079205 0.082898 0.086844 0.089895 0.092451 0.094608 0.063677 0.060729 0.059832 0.057511 0.055817 0.055161 0.05386 
0.035208 0.044052 0.051478 0.057195 0.062566 0.067464 0.071083 0.075575 0.054504 0.052254 0.051505 0.050117 0.048585 0.047306 0.04717 
0.002753 0.010778 0.018782 0.025242 0.032148 0.037444 0.042997 0.04942 0.040459 0.038723 0.039119 0.037767 0.036712 0.036197 0.036091 
-0.030754 -0.02322 -0.015469 -0.009389 -0.001632 0.004475 0.010502 0.018051 0.022821 0.021915 0.023251 0.021879 0.021164 0.021271 0.02132 
-0.059384 -0.053298 -0.047221 -0.042086 -0.035008 -0.028339 -0.022928 -0.014181 0.001643 0.003648 0.004426 0.0045 0.004058 0.004496 0.005104 
-0.081813 -0.07744 -0.07343 -0.06914 -0.063641 -0.058453 -0.053023 -0.044913 -0.019015 -0.016374 -0.014422 -0.013672 -0.013478 -0.012353 -0.011937 
-0.102149 -0.098902 -0.095677 -0.091668 -0.087613 -0.083575 -0.079179 -0.072719 -0.038298 -0.035491 -0.032871 -0.031749 -0.031068 -0.02969 -0.029069 
-0.106948 -0.10754 -0.106794 -0.105296 -0.103391 -0.100332 -0.097127 -0.092576 -0.053882 -0.050094 -0.047904 -0.045946 -0.044966 -0.043401 -0.042516 
-0.098757 -0.102531 -0.105108 -0.106454 -0.107083 -0.106176 -0.104786 -0.10254 -0.062425 -0.059506 -0.056779 -0.054619 -0.053468 -0.052016 -0.051034 
-0.08892 -0.09323 -0.096932 -0.099351 -0.101331 -0.102299 -0.10325 -0.103144 -0.066285 -0.063345 -0.06148 -0.059497 -0.058233 -0.056729 -0.055778 
-0.066665 -0.073465 -0.078692 -0.082972 -0.086974 -0.089672 -0.091638 -0.093772 -0.064605 -0.061151 -0.060266 -0.058143 -0.056341 -0.055421 -0.054277 
-0.032616 -0.041584 -0.049471 -0.055338 -0.062029 -0.066373 -0.070261 -0.074855 -0.054453 -0.052267 -0.051668 -0.049639 -0.047882 -0.047652 -0.04665 
-0.002613 -0.010166 -0.017766 -0.023824 -0.030726 -0.036196 -0.041503 -0.048809 -0.039757 -0.039024 -0.039467 -0.03808 -0.036994 -0.036162 -0.03649 
0.029016 0.021425 0.014868 0.00858 0.001895 -0.004401 -0.009633 -0.018029 -0.022126 -0.022398 -0.023315 -0.022695 -0.021777 -0.02143 -0.022045 
0.060968 0.05393 0.047147 0.041548 0.034641 0.028546 0.022557 0.014663 -0.000581 -0.002137 -0.003417 -0.00386 -0.003616 -0.004069 -0.004437 
0.081176 0.077608 0.073028 0.068934 0.063651 0.058217 0.052764 0.045505 0.019205 0.017167 0.015262 0.014301 0.013585 0.013053 0.01219 
0.099982 0.096904 0.09443 0.0914 0.087335 0.082624 0.078203 0.072347 0.037325 0.035027 0.032694 0.031699 0.030759 0.029662 0.028861 
0.108561 0.108196 0.107257 0.106106 0.103442 0.100318 0.096801 0.092298 0.053672 0.050227 0.047679 0.045818 0.045159 0.043671 0.042779 
0.098819 0.103144 0.105361 0.106618 0.107237 0.106035 0.105007 0.102322 0.06145 0.058282 0.056094 0.054035 0.053447 0.051515 0.050729 
0.088583 0.0927 0.096601 0.09934 0.101745 0.102335 0.103096 0.102671 0.065434 0.0623 0.060254 0.058458 0.057251 0.055218 0.054797 
0.067154 0.073752 0.079387 0.08379 0.087178 0.08997 0.092505 0.094046 0.065363 0.062065 0.060075 0.057702 0.056464 0.055081 0.05423 
0.033287 0.042772 0.050216 0.056359 0.06205 0.066916 0.07151 0.076073 0.055172 0.05358 0.052611 0.05055 0.049126 0.048293 0.047608 
0.002035 0.009908 0.017488 0.023903 0.031368 0.03683 0.042379 0.049281 0.040244 0.038987 0.039651 0.038508 0.036767 0.036461 0.036048 
-0.031608 -0.023846 -0.016234 -0.010285 -0.002584 0.003225 0.009348 0.017413 0.021345 0.021225 0.022476 0.022028 0.021168 0.021596 0.021321 
-0.058794 -0.052832 -0.046947 -0.041561 -0.035186 -0.028714 -0.023272 -0.014658 0.000911 0.002541 0.003902 0.004392 0.003663 0.004859 0.005326 
-0.080282 -0.076873 -0.072624 -0.068153 -0.06298 -0.05727 -0.052599 -0.044999 -0.018094 -0.01671 -0.014366 -0.013129 -0.013575 -0.012519 -0.011928 
-0.102058 -0.098884 -0.095493 -0.092023 -0.087225 -0.083042 -0.078602 -0.072342 -0.037953 -0.03526 -0.033058 -0.031467 -0.030888 -0.030312 -0.029139 
-0.106888 -0.107447 -0.106871 -0.105727 -0.103006 -0.100446 -0.096955 -0.092462 -0.052491 -0.049016 -0.047062 -0.045782 -0.044715 -0.0435 -0.041854 
-0.099256 -0.103625 -0.105602 -0.107287 -0.107515 -0.106608 -0.104866 -0.102306 -0.061574 -0.058194 -0.055352 -0.053791 -0.05215 -0.050441 -0.050015 
-0.08935 -0.093973 -0.097919 -0.100306 -0.102658 -0.103049 -0.104061 -0.103247 -0.067217 -0.063275 -0.060893 -0.058381 -0.056993 -0.055761 -0.055426 
-0.066119 -0.072695 -0.078907 -0.08276 -0.087209 -0.089816 -0.092756 -0.094674 -0.064112 -0.061194 -0.059837 -0.05752 -0.056171 -0.055495 -0.054205 
-0.033059 -0.041951 -0.049411 -0.05576 -0.0615 -0.066627 -0.070646 -0.075213 -0.054293 -0.052101 -0.051586 -0.049643 -0.047947 -0.047295 -0.046365 
-0.002742 -0.010817 -0.018144 -0.024387 -0.030701 -0.036529 -0.042183 -0.04869 -0.040255 -0.039275 -0.03956 -0.038251 -0.03706 -0.036407 -0.036225 
0.026175 0.018318 0.011628 0.004726 -0.001518 -0.007714 -0.013897 -0.021033 -0.02323 -0.023182 -0.024255 -0.023534 -0.022699 -0.022913 -0.022217 
0.057559 0.050616 0.043894 0.038288 0.031337 0.025513 0.019444 0.010981 -0.002501 -0.003594 -0.005376 -0.00551 -0.004921 -0.00534 -0.005466 
0.079578 0.075391 0.070895 0.066144 0.06043 0.054794 0.04948 0.041859 0.017046 0.015073 0.01305 0.01227 0.012461 0.01164 0.010896 
0.099597 0.096515 0.093329 0.089811 0.085259 0.080671 0.075847 0.069569 0.036303 0.034069 0.03148 0.030465 0.029649 0.028629 0.027691 
0.107638 0.107541 0.106129 0.104927 0.102109 0.098902 0.095505 0.090399 0.052589 0.049349 0.046659 0.044976 0.044606 0.042773 0.041859 
0.099029 0.102944 0.105232 0.106121 0.106376 0.105103 0.10407 0.101444 0.062185 0.058063 0.055793 0.053381 0.052683 0.051024 0.050322 
0.088709 0.093416 0.097274 0.099752 0.101572 0.102584 0.103246 0.102872 0.065434 0.062471 0.060602 0.058252 0.057085 0.056314 0.054881 
0.070283 0.076741 0.081766 0.085234 0.088497 0.091368 0.093507 0.094161 0.063035 0.060803 0.059501 0.057419 0.056488 0.055791 0.054559 
0.038571 0.047531 0.054664 0.059811 0.065369 0.070087 0.073734 0.076884 0.055433 0.053019 0.052116 0.050498 0.048527 0.047771 0.047525 
0.004451 0.013218 0.020948 0.027907 0.035105 0.04088 0.046048 0.052312 0.041591 0.03989 0.040077 0.03899 0.037044 0.036948 0.03669 
-0.028582 -0.020688 -0.013368 -0.006419 0.0011 0.007161 0.013145 0.021172 0.022426 0.022451 0.023665 0.023089 0.021866 0.022561 0.022704 
-0.056438 -0.04973 -0.04383 -0.038131 -0.031682 -0.025633 -0.019878 -0.011741 0.002137 0.003899 0.005229 0.005344 0.00466 0.005553 0.005461 
-0.079683 -0.074733 -0.070423 -0.065909 -0.06049 -0.054879 -0.049564 -0.042732 -0.018046 -0.015311 -0.013785 -0.013177 -0.012653 -0.011598 -0.011934 
-0.100439 -0.096984 -0.093589 -0.089949 -0.085427 -0.080726 -0.07607 -0.07005 -0.036672 -0.033495 -0.031698 -0.030479 -0.030402 -0.028946 -0.028242 
-0.106845 -0.106857 -0.105977 -0.104146 -0.101795 -0.098822 -0.095333 -0.090003 -0.050533 -0.047631 -0.045009 -0.043363 -0.043662 -0.041803 -0.041258 
-0.100428 -0.104276 -0.106315 -0.106729 -0.10713 -0.106085 -0.104614 -0.100921 -0.060747 -0.057879 -0.055016 -0.053033 -0.051873 -0.050193 -0.049358 
-0.090681 -0.09553 -0.098949 -0.100966 -0.103328 -0.10417 -0.104458 -0.103343 -0.066642 -0.063234 -0.061086 -0.059101 -0.057161 -0.056373 -0.054269 
-0.067912 -0.075079 -0.080692 -0.084866 -0.088839 -0.091704 -0.093339 -0.095435 -0.064375 -0.061282 -0.059455 -0.057875 -0.055985 -0.055226 -0.054018 
-0.034874 -0.044284 -0.051885 -0.058111 -0.063766 -0.068573 -0.072516 -0.076984 -0.055406 -0.053083 -0.052457 -0.050424 -0.048729 -0.047718 -0.047507 
-0.00542 -0.013296 -0.020404 -0.026891 -0.033293 -0.039512 -0.045143 -0.051311 -0.041463 -0.040387 -0.040863 -0.039395 -0.037973 -0.0378 -0.037361 
0.026097 0.01844 0.011388 0.005351 -0.001059 -0.007139 -0.013293 -0.020494 -0.022979 -0.02336 -0.023921 -0.023721 -0.022468 -0.023012 -0.02302 
0.057543 0.050343 0.043699 0.037573 0.031067 0.025552 0.019513 0.012013 -0.003071 -0.004102 -0.005381 -0.00543 -0.004718 -0.005624 -0.005813 
0.080682 0.076223 0.07191 0.066577 0.060831 0.0553 0.049905 0.042392 0.017359 0.015398 0.013172 0.012449 0.012491 0.011301 0.011026 
0.099697 0.096681 0.093484 0.090057 0.086034 0.081262 0.076059 0.069901 0.03711 0.033897 0.031425 0.030092 0.029905 0.028773 0.027581 
0.106917 0.106886 0.105716 0.104381 0.10216 0.098813 0.095197 0.090723 0.052504 0.048685 0.046632 0.044688 0.043706 0.042744 0.041194 
0.099225 0.102657 0.105065 0.106266 0.106134 0.10515 0.104294 0.101191 0.061877 0.058372 0.056108 0.053993 0.05206 0.051213 0.049797 
0.088348 0.092763 0.096558 0.09904 0.101155 0.102522 0.103459 0.102651 0.065589 0.062505 0.06023 0.058582 0.057258 0.055972 0.054922 
0.069652 0.076073 0.081263 0.084514 0.088572 0.09072 0.093181 0.0948 0.064212 0.060989 0.059714 0.057461 0.056709 0.055092 0.054356 
0.038566 0.04708 0.054511 0.059954 0.065537 0.069723 0.0732 0.077184 0.056329 0.053944 0.05298 0.050893 0.04952 0.04848 0.047582 
0.004387 0.013006 0.021015 0.027801 0.034481 0.040769 0.045615 0.052056 0.041401 0.040619 0.040581 0.039529 0.037687 0.037194 0.037107 
-0.028465 -0.020511 -0.012915 -0.00644 0.001106 0.006959 0.013437 0.021046 0.022216 0.022722 0.023719 0.023305 0.021891 0.021808 0.022419 
-0.056037 -0.050017 -0.043527 -0.038481 -0.031326 -0.025774 -0.019265 -0.012009 0.002083 0.003467 0.004849 0.005259 0.004795 0.005402 0.005635 
-0.079067 -0.074667 -0.06993 -0.065808 -0.060557 -0.054885 -0.049287 -0.043002 -0.017357 -0.015608 -0.012999 -0.012556 -0.012647 -0.011657 -0.010956 
-0.100375 -0.09674 -0.093579 -0.089258 -0.085142 -0.0801 -0.075814 -0.070253 -0.036211 -0.033775 -0.030945 -0.030389 -0.030102 -0.029175 -0.027958 
-0.107422 -0.10731 -0.106678 -0.104417 -0.101692 -0.098451 -0.095299 -0.090131 -0.052509 -0.049304 -0.046699 -0.045045 -0.043944 -0.042746 -0.041789 
-0.09943 -0.1031 -0.105424 -0.106382 -0.106836 -0.106029 -0.104562 -0.101468 -0.063017 -0.059452 -0.05663 -0.054312 -0.053084 -0.051403 -0.050352 
-0.08937 -0.093789 -0.097478 -0.099929 -0.10245 -0.103313 -0.103823 -0.104298 -0.067482 -0.064027 -0.061944 -0.059488 -0.058233 -0.056843 -0.055713 
-0.068354 -0.075011 -0.080638 -0.084502 -0.088543 -0.091069 -0.092823 -0.095034 -0.06512 -0.062101 -0.060856 -0.058555 -0.056844 -0.055868 -0.055261 
-0.035207 -0.044056 -0.052099 -0.057844 -0.063647 -0.068316 -0.072564 -0.075736 -0.054414 -0.052101 -0.05214 -0.050348 -0.048698 -0.047764 -0.047566 
-0.006328 -0.01388 -0.021189 -0.027514 -0.033576 -0.039951 -0.045436 -0.050605 -0.039595 -0.038634 -0.039486 -0.038217 -0.037138 -0.036828 -0.036518 
0.024628 0.017136 0.010561 0.004653 -0.00214 -0.008729 -0.013763 -0.020317 -0.022885 -0.023048 -0.023453 -0.022783 -0.022009 -0.022184 -0.021969 
0.057229 0.050398 0.043649 0.037627 0.030746 0.0246 0.018632 0.011312 -0.002037 -0.00342 -0.004985 -0.004939 -0.004165 -0.004751 -0.004925 
0.079843 0.075378 0.070939 0.065479 0.060368 0.054911 0.049019 0.041861 0.018284 0.015943 0.013355 0.013026 0.013259 0.011875 0.011198 
0.099148 0.095654 0.092806 0.08921 0.084487 0.080726 0.075846 0.069651 0.035823 0.033553 0.031537 0.030766 0.029999 0.028825 0.027789 
0.10709 0.107064 0.105976 0.104681 0.101308 0.098524 0.095234 0.089838 0.051624 0.048627 0.046128 0.044419 0.043809 0.042483 0.04173 
0.099244 0.102858 0.105128 0.106468 0.106504 0.105311 0.104316 0.100718 0.061475 0.057639 0.055327 0.052953 0.05239 0.050693 0.050101 
0.089679 0.094388 0.097814 0.100293 0.102033 0.103641 0.103757 0.102712 0.065369 0.062068 0.06061 0.058556 0.056862 0.056013 0.055278 
0.070529 0.077209 0.082163 0.085542 0.08913 0.091871 0.093597 0.095132 0.063377 0.061004 0.059401 0.057439 0.056156 0.055109 0.054277 
0.039204 0.047319 0.054336 0.060318 0.066078 0.070267 0.074017 0.077467 0.054717 0.052684 0.051919 0.049681 0.04884 0.047718 0.046978 
0.005437 0.014416 0.022172 0.02906 0.035517 0.041468 0.046726 0.051838 0.040954 0.039677 0.039787 0.0384 0.036485 0.036557 0.036256 
-0.029005 -0.020312 -0.012518 -0.006064 0.001391 0.00753 0.013765 0.021166 0.022114 0.022428 0.022908 0.022588 0.021114 0.021551 0.021443 
-0.055548 -0.04983 -0.044239 -0.038277 -0.031471 -0.025361 -0.019413 -0.011257 0.003348 0.004112 0.005509 0.005166 0.004903 0.005576 0.005711 
-0.079085 -0.07486 -0.070298 -0.065925 -0.060407 -0.054998 -0.049363 -0.041219 -0.015519 -0.013866 -0.011937 -0.011647 -0.011771 -0.010675 -0.010187 
-0.101537 -0.09823 -0.094366 -0.090865 -0.085847 -0.081148 -0.076446 -0.06875 -0.036367 -0.033145 -0.030869 -0.029269 -0.029093 -0.028068 -0.027262 
-0.105666 -0.106608 -0.1064 -0.104639 -0.102406 -0.098843 -0.096072 -0.090517 -0.051054 -0.047931 -0.045555 -0.043966 -0.043055 -0.042023 -0.040838 
-0.099741 -0.103761 -0.10554 -0.106624 -0.106874 -0.106042 -0.104747 -0.101492 -0.060482 -0.057256 -0.054848 -0.052975 -0.051786 -0.050651 -0.049616 
-0.091894 -0.095777 -0.098802 -0.101099 -0.103126 -0.103803 -0.104025 -0.103736 -0.066093 -0.062921 -0.060555 -0.058197 -0.057047 -0.055636 -0.054693 
-0.069056 -0.075008 -0.080725 -0.084859 -0.089307 -0.091364 -0.093413 -0.095538 -0.063321 -0.060639 -0.059254 -0.057451 -0.056246 -0.054655 -0.053861 
-0.036568 -0.045266 -0.052718 -0.058865 -0.064556 -0.069235 -0.073027 -0.076856 -0.05476 -0.052339 -0.051637 -0.049625 -0.048239 -0.047533 -0.0473 
-0.006024 -0.013958 -0.021724 -0.02792 -0.034538 -0.040391 -0.045754 -0.051945 -0.040545 -0.0397 -0.039744 -0.038351 -0.036709 -0.0367 -0.036739 
0.025562 0.018112 0.011171 0.004908 -0.001825 -0.007661 -0.013978 -0.020858 -0.022028 -0.022144 -0.023258 -0.023131 -0.021748 -0.021779 -0.021893 
0.056062 0.04932 0.043065 0.037051 0.030712 0.024848 0.01873 0.011547 -0.003297 -0.003977 -0.005238 -0.005167 -0.004466 -0.00517 -0.005219 
0.079964 0.075653 0.070634 0.065964 0.060125 0.054255 0.048917 0.041291 0.016436 0.014499 0.012681 0.011961 0.012095 0.011215 0.010793 
0.099914 0.09631 0.093437 0.0896 0.08542 0.08053 0.075683 0.06894 0.035513 0.032974 0.030681 0.029416 0.028907 0.028076 0.027386 
0.108137 0.107298 0.106376 0.104486 0.102007 0.098902 0.095603 0.090159 0.051246 0.047798 0.045767 0.044078 0.043074 0.041829 0.041315 
0.100109 0.103721 0.105749 0.10698 0.107169 0.105596 0.104794 0.101698 0.061509 0.057879 0.055581 0.05304 0.051888 0.050757 0.04932 
0.089159 0.093968 0.098026 0.100257 0.102737 0.10332 0.104024 0.103451 0.065437 0.062287 0.060333 0.0587 0.057079 0.055794 0.054204 
0.070667 0.077358 0.082391 0.085943 0.089032 0.091555 0.093877 0.095294 0.063498 0.060603 0.059351 0.057957 0.055964 0.054812 0.054228 
0.038916 0.047619 0.054671 0.060693 0.066059 0.06973 0.074153 0.077619 0.055081 0.053288 0.052059 0.049938 0.048469 0.047909 0.047418 
0.005227 0.013583 0.021357 0.028031 0.035721 0.040722 0.04619 0.051995 0.041752 0.040468 0.039779 0.038615 0.037336 0.036588 0.036556 
-0.02852 -0.020815 -0.013216 -0.006751 0.001139 0.007237 0.012951 0.021584 0.023474 0.023054 0.023671 0.023182 0.022077 0.021824 0.021772 
-0.056695 -0.050856 -0.044344 -0.038964 -0.032113 -0.025545 -0.019897 -0.011277 0.00264 0.003721 0.00543 0.005444 0.005287 0.006023 0.005632 
-0.079208 -0.07431 -0.070125 -0.065681 -0.060633 -0.054787 -0.049607 -0.043046 -0.017223 -0.015296 -0.013462 -0.012175 -0.012152 -0.011362 -0.010486 
-0.100576 -0.09632 -0.093193 -0.089146 -0.084957 -0.080595 -0.076353 -0.070101 -0.037004 -0.033667 -0.031636 -0.030315 -0.030225 -0.029082 -0.027809 
-0.106235 -0.106405 -0.105591 -0.103898 -0.101261 -0.098593 -0.09548 -0.090519 -0.051711 -0.048102 -0.045547 -0.044388 -0.043681 -0.041982 -0.041111 
-0.100036 -0.103894 -0.105844 -0.10645 -0.106522 -0.105659 -0.103951 -0.101331 -0.060436 -0.057078 -0.054832 -0.053056 -0.051947 -0.050572 -0.049385 
-0.091675 -0.096667 -0.099592 -0.101491 -0.103498 -0.103672 -0.10427 -0.103103 -0.066808 -0.062833 -0.060803 -0.05873 -0.057282 -0.056148 -0.054924 
-0.068425 -0.075601 -0.081293 -0.085297 -0.089818 -0.091605 -0.0945 -0.095943 -0.064556 -0.061525 -0.05997 -0.057926 -0.056337 -0.055002 -0.054153 
-0.036087 -0.044675 -0.052493 -0.058448 -0.064283 -0.068841 -0.072965 -0.077123 -0.053941 -0.052135 -0.051547 -0.049959 -0.048194 -0.047089 -0.046975 
-0.006529 -0.014445 -0.021825 -0.028188 -0.034252 -0.040028 -0.045032 -0.050842 -0.040513 -0.039379 -0.039309 -0.038141 -0.036629 -0.036213 -0.036222 
0.026211 0.01867 0.011097 0.005059 -0.002243 -0.007862 -0.013752 -0.021062 -0.0225 -0.022714 -0.023678 -0.022817 -0.021891 -0.022116 -0.02181 
0.056556 0.050239 0.043554 0.037582 0.031074 0.024969 0.019098 0.01139 -0.002975 -0.004037 -0.005626 -0.005504 -0.00471 -0.00521 -0.005326 
0.07994 0.075715 0.070946 0.066085 0.060703 0.054739 0.049579 0.041966 0.016186 0.01435 0.012498 0.01176 0.012156 0.011353 0.010854 
0.100475 0.09719 0.093536 0.090517 0.085493 0.080644 0.076452 0.068961 0.036766 0.033323 0.030825 0.029634 0.029284 0.027761 0.02688 
0.106633 0.106601 0.10574 0.104142 0.102012 0.098622 0.095916 0.090425 0.052121 0.048299 0.046229 0.044719 0.043581 0.041821 0.040736 
0.099089 0.102873 0.105207 0.105678 0.106138 0.105222 0.103889 0.101232 0.060242 0.057326 0.055489 0.053139 0.051981 0.050442 0.049563 
0.089877 0.094395 0.097968 0.100328 0.10174 0.102881 0.103347 0.102172 0.065006 0.061887 0.060098 0.057626 0.056472 0.055137 0.054251 
0.069938 0.076563 0.08193 0.08563 0.088985 0.091648 0.094043 0.094852 0.063838 0.060441 0.059471 0.057574 0.055325 0.054741 0.053981 
0.038637 0.04713 0.054631 0.060146 0.065657 0.070309 0.073761 0.077597 0.055069 0.052729 0.052323 0.050336 0.048475 0.048101 0.047315 
0.005902 0.013983 0.022128 0.028613 0.035309 0.041182 0.046412 0.05197 0.040912 0.03968 0.039998 0.03825 0.037482 0.036741 0.036343 
-0.027919 -0.020124 -0.012125 -0.005796 0.001356 0.007613 0.014147 0.021397 0.023683 0.022975 0.023735 0.02303 0.021874 0.021902 0.02208 
-0.056366 -0.05068 -0.044043 -0.038416 -0.031794 -0.025638 -0.019615 -0.010665 0.004536 0.004669 0.006011 0.006283 0.0055 0.006196 0.006242 
-0.079623 -0.075456 -0.070931 -0.066312 -0.060755 -0.055254 -0.049787 -0.041499 -0.016603 -0.014568 -0.012224 -0.011358 -0.011113 -0.010632 -0.009803 
-0.100462 -0.096846 -0.093887 -0.090108 -0.085401 -0.080983 -0.076347 -0.069504 -0.036943 -0.033396 -0.031058 -0.029388 -0.029039 -0.028153 -0.026906 
-0.106189 -0.10649 -0.10592 -0.104315 -0.101831 -0.098745 -0.095783 -0.090343 -0.052735 -0.048935 -0.046259 -0.043921 -0.043275 -0.041795 -0.041177 
-0.099474 -0.103049 -0.105199 -0.106226 -0.106654 -0.105073 -0.104218 -0.101425 -0.062527 -0.058893 -0.055795 -0.05389 -0.052475 -0.051054 -0.050374 
-0.090481 -0.09479 -0.09831 -0.100285 -0.102103 -0.102857 -0.103431 -0.103353 -0.066183 -0.062588 -0.060994 -0.059109 -0.057524 -0.056496 -0.055796 
-0.068676 -0.075539 -0.080999 -0.084721 -0.088505 -0.091352 -0.093236 -0.094628 -0.063935 -0.060476 -0.060102 -0.057398 -0.055927 -0.055425 -0.054391 
-0.035934 -0.044954 -0.052216 -0.05823 -0.064457 -0.068585 -0.073169 -0.07635 -0.055461 -0.053368 -0.052554 -0.050322 -0.048701 -0.048108 -0.04701 
-0.006 -0.014041 -0.021096 -0.027363 -0.034054 -0.039526 -0.045606 -0.051636 -0.041605 -0.040714 -0.040799 -0.039702 -0.038313 -0.037432 -0.037126 
0.024472 0.016624 0.009577 0.003584 -0.003205 -0.008839 -0.014842 -0.021723 -0.024559 -0.02394 -0.024782 -0.024569 -0.023572 -0.023434 -0.02356 
0.05596 0.049091 0.042215 0.036683 0.029738 0.023743 0.017993 0.010279 -0.003524 -0.00441 -0.006002 -0.00603 -0.005277 -0.006285 -0.006281 
0.07891 0.074691 0.069646 0.065287 0.059808 0.053855 0.048268 0.041519 0.016703 0.015118 0.012539 0.011887 0.011895 0.010672 0.010404 
0.098969 0.09595 0.091976 0.089055 0.084456 0.079654 0.075075 0.069039 0.035615 0.033537 0.030791 0.029312 0.029373 0.027808 0.027039 
0.107096 0.107058 0.105899 0.104064 0.101122 0.098487 0.095054 0.089868 0.051265 0.048429 0.045963 0.043934 0.043709 0.042033 0.04175 
0.099783 0.103911 0.106353 0.106603 0.106657 0.105552 0.104405 0.100951 0.060459 0.057456 0.055137 0.053133 0.051945 0.050838 0.049832 
0.090078 0.095125 0.098729 0.101383 0.103045 0.103428 0.10424 0.102701 0.065497 0.06254 0.060666 0.058465 0.057367 0.055514 0.054067 
0.070381 0.076699 0.081804 0.086262 0.089662 0.092355 0.093934 0.095558 0.065511 0.062454 0.060845 0.058198 0.056762 0.055044 0.054639 
0.037943 0.046755 0.054206 0.059742 0.06576 0.070117 0.074121 0.078774 0.05778 0.054904 0.05366 0.052048 0.050017 0.049279 0.048811 
0.005087 0.014012 0.02177 0.027928 0.03544 0.040834 0.04668 0.053196 0.042527 0.040958 0.041233 0.040618 0.039108 0.03874 0.038089 
-0.026773 -0.019234 -0.012224 -0.005893 0.001651 0.007645 0.013701 0.021252 0.023712 0.023524 0.024755 0.024508 0.02318 0.023761 0.023524 
-0.055087 -0.049253 -0.043211 -0.037702 -0.031272 -0.025006 -0.018963 -0.011306 0.004197 0.005498 0.006671 0.006995 0.006265 0.007101 0.007245 
-0.079601 -0.074918 -0.070341 -0.06553 -0.060157 -0.054458 -0.049159 -0.041801 -0.015795 -0.013593 -0.011424 -0.01146 -0.01121 -0.010087 -0.009557 
-0.100839 -0.097196 -0.093885 -0.090081 -0.085295 -0.080825 -0.076397 -0.069233 -0.035085 -0.032887 -0.029986 -0.029297 -0.028982 -0.027158 -0.026518 
-0.106802 -0.10695 -0.106136 -0.104841 -0.102139 -0.098759 -0.09554 -0.089643 -0.051725 -0.047989 -0.045752 -0.043403 -0.042698 -0.041142 -0.040019 
-0.10002 -0.103791 -0.10599 -0.107154 -0.107135 -0.105804 -0.104513 -0.101674 -0.061869 -0.057989 -0.055925 -0.053672 -0.052347 -0.050647 -0.049594 
-0.090985 -0.095472 -0.098876 -0.10158 -0.103057 -0.103864 -0.104581 -0.103998 -0.066202 -0.063559 -0.061368 -0.059171 -0.057617 -0.056201 -0.055548 
-0.068991 -0.075948 -0.081249 -0.085374 -0.089022 -0.091885 -0.094153 -0.095726 -0.065023 -0.062054 -0.06048 -0.058131 -0.05655 -0.055872 -0.054825 
-0.035686 -0.044757 -0.052402 -0.058057 -0.064224 -0.069317 -0.073178 -0.077889 -0.055678 -0.053652 -0.052884 -0.050876 -0.049793 -0.048554 -0.048196 
-0.006558 -0.013976 -0.021015 -0.027422 -0.034344 -0.040133 -0.045715 -0.052022 -0.041568 -0.041119 -0.041142 -0.039823 -0.038729 -0.037785 -0.038294 
0.024658 0.017114 0.01082 0.004525 -0.002399 -0.00825 -0.014414 -0.021456 -0.023668 -0.023973 -0.024788 -0.025038 -0.023776 -0.023841 -0.02408 
0.056125 0.048987 0.042514 0.036935 0.030228 0.024212 0.0183 0.010837 -0.003993 -0.004843 -0.006203 -0.006628 -0.006744 -0.006685 -0.00707 
0.079348 0.07524 0.070284 0.065631 0.059745 0.054265 0.049097 0.041415 0.015089 0.013515 0.011638 0.011324 0.010888 0.010257 0.009622 
0.099876 0.096757 0.09341 0.089497 0.084742 0.080507 0.076079 0.068404 0.03526 0.032383 0.030052 0.028489 0.029017 0.027452 0.026599 
0.107862 0.107481 0.106438 0.104738 0.101985 0.099106 0.095676 0.090004 0.051352 0.048008 0.04568 0.043994 0.043423 0.042008 0.040962 
0.100312 0.103848 0.106101 0.107345 0.106994 0.105952 0.10482 0.101903 0.061156 0.057343 0.055378 0.053443 0.052149 0.050243 0.049542 
0.089719 0.094175 0.097675 0.100484 0.102111 0.103609 0.104034 0.103511 0.065852 0.062273 0.060582 0.058061 0.057136 0.055283 0.054356 
0.070039 0.076307 0.081487 0.085319 0.089061 0.091789 0.093907 0.095373 0.063737 0.061467 0.059899 0.05793 0.056323 0.055394 0.054275 
0.039346 0.047891 0.055363 0.060483 0.066332 0.069941 0.074613 0.077878 0.056058 0.053796 0.052971 0.051088 0.049516 0.048386 0.048069 
0.006036 0.014951 0.022628 0.02892 0.036454 0.041945 0.047045 0.053077 0.042547 0.040816 0.041116 0.039571 0.038211 0.037313 0.037543 
-0.027293 -0.019197 -0.011893 -0.005381 0.002284 0.008715 0.014336 0.022447 0.023859 0.023716 0.024259 0.024248 0.022672 0.022901 0.023311 
-0.054509 -0.048669 -0.043172 -0.03708 -0.030963 -0.024777 -0.018449 -0.010187 0.003457 0.005007 0.005783 0.006745 0.005736 0.006683 0.007151 
-0.078329 -0.073827 -0.069583 -0.064519 -0.059073 -0.053788 -0.04866 -0.041234 -0.016893 -0.014309 -0.012625 -0.01146 -0.011853 -0.01055 -0.010035 
-0.100205 -0.096632 -0.092386 -0.088956 -0.084216 -0.07984 -0.075036 -0.068926 -0.036492 -0.033792 -0.03166 -0.030067 -0.029372 -0.028396 -0.027607 
-0.105579 -0.105899 -0.105334 -0.103539 -0.101169 -0.098029 -0.094445 -0.089617 -0.052241 -0.048699 -0.046233 -0.044518 -0.043055 -0.042189 -0.041613 
-0.099314 -0.102857 -0.105416 -0.105865 -0.105823 -0.104778 -0.104145 -0.100868 -0.060538 -0.057239 -0.054716 -0.053086 -0.052281 -0.05093 -0.050099 
-0.091719 -0.096244 -0.099041 -0.101289 -0.102893 -0.103443 -0.104056 -0.102811 -0.064693 -0.061851 -0.060057 -0.058033 -0.057256 -0.055905 -0.054503 
-0.070431 -0.077513 -0.08283 -0.086796 -0.090142 -0.092508 -0.09427 -0.095188 -0.064326 -0.06091 -0.059576 -0.057373 -0.055836 -0.054967 -0.054067 
-0.037676 -0.046683 -0.054341 -0.060293 -0.066148 -0.070612 -0.074578 -0.078006 -0.055648 -0.053413 -0.052443 -0.050501 -0.048665 -0.048221 -0.047445 
-0.00718 -0.015437 -0.022801 -0.028949 -0.03604 -0.041702 -0.04729 -0.053345 -0.042389 -0.041146 -0.040858 -0.039854 -0.038018 -0.037765 -0.037066 
0.024919 0.017071 0.009966 0.003829 -0.002858 -0.009115 -0.015189 -0.022816 -0.024416 -0.02369 -0.024418 -0.024399 -0.022806 -0.023406 -0.023289 
0.056021 0.048945 0.042576 0.036722 0.029901 0.02405 0.017922 0.010373 -0.003022 -0.003971 -0.005667 -0.005986 -0.005437 -0.006083 -0.006543 
0.079037 0.074502 0.06983 0.065247 0.059341 0.054152 0.048298 0.0412 0.016447 0.014903 0.012739 0.01179 0.011265 0.011292 0.010062 
0.098728 0.096256 0.092882 0.088741 0.084449 0.079951 0.075298 0.068498 0.035619 0.033314 0.030738 0.029351 0.029285 0.02794 0.02723 
0.107305 0.107273 0.106386 0.104023 0.101463 0.09848 0.095067 0.089352 0.052361 0.048185 0.045617 0.04382 0.043613 0.042113 0.041621 
0.100004 0.103519 0.105788 0.106398 0.106597 0.105377 0.104133 0.100594 0.061806 0.057974 0.055442 0.053305 0.051805 0.051053 0.049833 
0.08944 0.094348 0.097974 0.100007 0.101833 0.102558 0.103728 0.103088 0.06545 0.062989 0.060589 0.058818 0.057516 0.055825 0.055064 
0.070631 0.077182 0.082121 0.0859 0.089246 0.091817 0.093679 0.095502 0.064071 0.061458 0.059998 0.058019 0.057027 0.05581 0.055053 
0.038887 0.048533 0.05514 0.061082 0.066477 0.070987 0.074436 0.078225 0.055931 0.053784 0.052997 0.05115 0.049904 0.049156 0.048105 
0.00562 0.015003 0.022717 0.029164 0.035695 0.041627 0.047158 0.053063 0.04165 0.040591 0.040501 0.039484 0.038324 0.037647 0.03707 
-0.026934 -0.019226 -0.011105 -0.004832 0.002298 0.008336 0.014323 0.021843 0.023533 0.022959 0.023935 0.02326 0.022052 0.022723 0.022386 
-0.054866 -0.048631 -0.04227 -0.036586 -0.030452 -0.024305 -0.018218 -0.010361 0.003543 0.004267 0.006036 0.006072 0.005147 0.00621 0.006247 
-0.078367 -0.073785 -0.06918 -0.064667 -0.059396 -0.054166 -0.048268 -0.041473 -0.016348 -0.014708 -0.012151 -0.011292 -0.011889 -0.010964 -0.010039 
-0.100187 -0.096807 -0.092891 -0.089069 -0.084041 -0.080313 -0.075294 -0.069352 -0.035124 -0.033497 -0.030524 -0.02955 -0.029358 -0.028205 -0.027124 
-0.106153 -0.107155 -0.106032 -0.103917 -0.101201 -0.098309 -0.094872 -0.089441 -0.050737 -0.047905 -0.045217 -0.043775 -0.042875 -0.041525 -0.04087 
-0.099656 -0.104062 -0.106059 -0.106884 -0.106543 -0.10584 -0.104289 -0.100731 -0.060879 -0.057378 -0.055004 -0.052618 -0.051904 -0.050543 -0.049262 
-0.091755 -0.095678 -0.099228 -0.10159 -0.102982 -0.104222 -0.104207 -0.103269 -0.065943 -0.063017 -0.060862 -0.058784 -0.057251 -0.056329 -0.054997 
-0.07 -0.076662 -0.082511 -0.086116 -0.089834 -0.092349 -0.094123 -0.095769 -0.064084 -0.061141 -0.059591 -0.058168 -0.056299 -0.055272 -0.054613 
-0.037557 -0.046722 -0.054411 -0.05984 -0.065492 -0.070231 -0.074177 -0.077692 -0.054906 -0.052825 -0.051948 -0.050174 -0.048835 -0.047498 -0.047129 
-0.007876 -0.015476 -0.02301 -0.029073 -0.035834 -0.041568 -0.046925 -0.052249 -0.041714 -0.04098 -0.04078 -0.039169 -0.037695 -0.036898 -0.037275 
0.024916 0.017262 0.010152 0.003613 -0.003252 -0.009302 -0.015161 -0.022666 -0.024158 -0.023743 -0.024633 -0.023906 -0.02308 -0.022919 -0.023183 
0.056252 0.048925 0.042919 0.036592 0.030075 0.023681 0.017416 0.009729 -0.003969 -0.004349 -0.006171 -0.006301 -0.005844 -0.006478 -0.006394 
0.079308 0.074381 0.070107 0.065407 0.059636 0.054025 0.048458 0.040993 0.015651 0.013856 0.011802 0.011199 0.011643 0.010162 0.00979 
0.100038 0.096484 0.093071 0.089284 0.084913 0.080474 0.07598 0.068406 0.035376 0.03241 0.030224 0.02932 0.028878 0.027528 0.026786 
0.107589 0.107413 0.106212 0.104543 0.10173 0.099327 0.095245 0.090039 0.051755 0.048039 0.045387 0.043821 0.042831 0.04141 0.040604 
0.099595 0.103296 0.105359 0.106838 0.106538 0.106035 0.104479 0.102056 0.061327 0.057548 0.055094 0.053045 0.051847 0.049996 0.049527 
0.08988 0.094374 0.097731 0.10031 0.102444 0.103119 0.103996 0.103409 0.065932 0.062779 0.060779 0.058637 0.057324 0.055618 0.055002 
0.070683 0.077062 0.081858 0.08582 0.089433 0.092163 0.093403 0.095459 0.064388 0.062239 0.060322 0.058393 0.056764 0.055443 0.054866 
0.039714 0.048388 0.055063 0.061258 0.066715 0.070811 0.074179 0.078593 0.055826 0.054197 0.053172 0.051431 0.049716 0.049019 0.048465 
0.006727 0.015452 0.022835 0.02961 0.036551 0.041833 0.047193 0.053046 0.042247 0.041156 0.040925 0.03961 0.038338 0.03807 0.037106 
-0.026923 -0.018816 -0.011044 -0.005229 0.002138 0.009323 0.01484 0.022017 0.023411 0.023929 0.024267 0.023863 0.022789 0.02314 0.023022 
-0.054564 -0.048168 -0.041926 -0.036967 -0.030401 -0.023728 -0.01777 -0.010372 0.003234 0.004692 0.006234 0.00624 0.006057 0.006857 0.007223 
-0.078714 -0.073652 -0.069208 -0.064451 -0.05892 -0.053809 -0.048271 -0.041226 -0.015781 -0.014009 -0.011869 -0.011441 -0.011206 -0.010137 -0.009994 
-0.100528 -0.096821 -0.092912 -0.089251 -0.084495 -0.079442 -0.074901 -0.068259 -0.035947 -0.033081 -0.030397 -0.029119 -0.029244 -0.027567 -0.02655 
-0.105673 -0.106034 -0.105314 -0.10384 -0.101371 -0.097796 -0.09438 -0.089441 -0.051696 -0.048635 -0.04555 -0.043671 -0.042659 -0.041904 -0.040448 
-0.099964 -0.103396 -0.105887 -0.106524 -0.106349 -0.1058 -0.104337 -0.101292 -0.06048 -0.057687 -0.055366 -0.05319 -0.051804 -0.05085 -0.050253 
-0.091667 -0.09603 -0.099049 -0.101325 -0.10317 -0.103951 -0.1041 -0.103317 -0.066244 -0.063114 -0.061117 -0.058787 -0.05816 -0.055747 -0.055455 
-0.069328 -0.076185 -0.081572 -0.085627 -0.090067 -0.092146 -0.094018 -0.096013 -0.065218 -0.062309 -0.060596 -0.058261 -0.057028 -0.0558 -0.055041 
-0.036846 -0.045513 -0.053472 -0.059502 -0.065238 -0.069949 -0.073891 -0.07781 -0.055289 -0.053218 -0.05274 -0.051113 -0.049435 -0.048911 -0.048368 
-0.007592 -0.015414 -0.022508 -0.028954 -0.03511 -0.041117 -0.046094 -0.052335 -0.041499 -0.040588 -0.040794 -0.039863 -0.038488 -0.037879 -0.037449 
0.023938 0.016107 0.009421 0.003072 -0.003452 -0.00956 -0.014962 -0.022876 -0.02464 -0.024552 -0.025165 -0.024435 -0.023576 -0.023835 -0.023422 
0.05605 0.048934 0.04232 0.036223 0.029203 0.023337 0.017516 0.00956 -0.004441 -0.004947 -0.006486 -0.006577 -0.006208 -0.006733 -0.007136 
0.078948 0.074643 0.070264 0.065612 0.059265 0.054011 0.048388 0.040661 0.015318 0.013842 0.011851 0.010823 0.011282 0.010407 0.009856 
0.098745 0.095635 0.092647 0.088863 0.084519 0.079457 0.074816 0.067963 0.034826 0.032266 0.029932 0.028615 0.028412 0.027143 0.026756 
0.107878 0.107227 0.10632 0.10472 0.1015 0.098124 0.094912 0.089533 0.051866 0.048421 0.045488 0.043873 0.043176 0.041567 0.040534 
0.0998 0.103352 0.105929 0.107236 0.106535 0.105977 0.104618 0.101749 0.060697 0.057433 0.054862 0.052648 0.052373 0.050514 0.049421 
0.089397 0.094409 0.097766 0.099797 0.102462 0.103013 0.103522 0.103521 0.064547 0.061851 0.059822 0.057453 0.056572 0.055077 0.054549 
0.071127 0.077778 0.08211 0.085872 0.089797 0.091833 0.093908 0.095661 0.064328 0.061589 0.059637 0.057812 0.05606 0.054981 0.054247 
0.040272 0.048794 0.055827 0.061572 0.066684 0.071202 0.074866 0.078719 0.056978 0.054403 0.053248 0.051625 0.049695 0.049018 0.048154 
0.006693 0.015192 0.023167 0.029809 0.036336 0.042137 0.047201 0.053839 0.043091 0.041705 0.041741 0.040121 0.038526 0.038216 0.037687 
-0.027333 -0.01913 -0.011644 -0.004508 0.002411 0.008859 0.014821 0.022843 0.023441 0.023698 0.024908 0.024111 0.02313 0.023407 0.023044 
-0.054252 -0.047829 -0.041847 -0.036372 -0.030083 -0.023869 -0.017876 -0.010512 0.003544 0.0045 0.006505 0.006687 0.005844 0.006752 0.007061 
-0.078172 -0.0732 -0.068618 -0.064134 -0.058607 -0.053401 -0.048021 -0.041324 -0.015688 -0.014133 -0.012023 -0.011189 -0.011858 -0.01054 -0.009614 
-0.100652 -0.097034 -0.093191 -0.089054 -0.084255 -0.079651 -0.074999 -0.068754 -0.036432 -0.033619 -0.031069 -0.029769 -0.029499 -0.02811 -0.027247 
-0.106096 -0.106576 -0.105638 -0.104294 -0.101288 -0.098158 -0.095082 -0.090133 -0.052076 -0.048651 -0.045919 -0.044407 -0.043102 -0.041872 -0.041264 
-0.100647 -0.104015 -0.10613 -0.107143 -0.106373 -0.105582 -0.104569 -0.100886 -0.061048 -0.057937 -0.055483 -0.053707 -0.052225 -0.050823 -0.050195 
-0.091121 -0.095841 -0.099061 -0.101344 -0.102723 -0.103751 -0.104257 -0.102642 -0.065797 -0.063103 -0.060597 -0.058862 -0.057358 -0.056153 -0.05528 
-0.068629 -0.075775 -0.081169 -0.085494 -0.089022 -0.091816 -0.093851 -0.095296 -0.06352 -0.061022 -0.059521 -0.057669 -0.056027 -0.055047 -0.054421 
-0.037898 -0.046548 -0.05387 -0.059629 -0.065349 -0.069717 -0.0734 -0.077469 -0.054095 -0.052285 -0.051811 -0.049895 -0.048614 -0.047778 -0.047146 
-0.00818 -0.016284 -0.023288 -0.029448 -0.036203 -0.041466 -0.046449 -0.052408 -0.040825 -0.040086 -0.039559 -0.038491 -0.037398 -0.037169 -0.036353 
0.02356 0.016082 0.009714 0.002727 -0.004188 -0.0098 -0.015504 -0.022699 -0.024893 -0.024873 -0.026178 -0.025246 -0.024332 -0.024204 -0.024165 
0.05526 0.048458 0.042283 0.036087 0.029108 0.023258 0.016765 0.009179 -0.005377 -0.00627 -0.007552 -0.00742 -0.006908 -0.007435 -0.007598 
0.079412 0.074648 0.069981 0.065011 0.059253 0.0535 0.047964 0.03979 0.015175 0.013115 0.010819 0.010642 0.010592 0.00982 0.009001 
0.098668 0.095854 0.092395 0.089301 0.084211 0.079397 0.075287 0.068268 0.035464 0.032482 0.029649 0.028788 0.028225 0.027012 0.026398 
0.106293 0.106221 0.105293 0.104191 0.101217 0.098327 0.094873 0.089712 0.050388 0.047441 0.045171 0.04338 0.042865 0.041199 0.040234 
0.100697 0.104298 0.106302 0.106701 0.10705 0.10598 0.104316 0.100838 0.059678 0.056278 0.054177 0.051935 0.051052 0.049433 0.048603 
0.091382 0.096248 0.099102 0.101545 0.103273 0.104276 0.104523 0.102929 0.064892 0.061476 0.059406 0.05691 0.055836 0.054464 0.053946 
0.071677 0.078127 0.08286 0.087085 0.090763 0.093549 0.094974 0.09608 0.064259 0.061248 0.05975 0.057283 0.056238 0.055023 0.05381 
0.040411 0.048922 0.056281 0.06196 0.067913 0.071763 0.075842 0.079712 0.05581 0.053426 0.052814 0.051216 0.049097 0.048537 0.047675 
0.008049 0.016497 0.024356 0.030652 0.037401 0.042713 0.048741 0.05427 0.041665 0.040755 0.04048 0.039605 0.037821 0.037908 0.037521 
-0.025261 -0.017158 -0.009716 -0.003407 0.003751 0.009989 0.015916 0.023044 0.025272 0.024631 0.024962 0.023931 0.023657 0.023586 0.02326 
-0.054867 -0.04896 -0.042699 -0.036383 -0.029844 -0.023294 -0.017099 -0.008417 0.005009 0.005394 0.007532 0.006913 0.00656 0.006838 0.00737 
-0.077845 -0.074283 -0.069438 -0.064863 -0.059096 -0.053459 -0.047825 -0.039731 -0.016015 -0.013814 -0.011507 -0.010625 -0.010869 -0.010091 -0.009305 
-0.09904 -0.095651 -0.091596 -0.088504 -0.083636 -0.079587 -0.075144 -0.068172 -0.034483 -0.032166 -0.030166 -0.028251 -0.028254 -0.027117 -0.026671 
-0.107546 -0.107475 -0.106147 -0.10417 -0.10162 -0.098377 -0.094575 -0.088564 -0.051176 -0.048043 -0.044774 -0.043111 -0.042664 -0.041085 -0.040378 
-0.101264 -0.104937 -0.10704 -0.107571 -0.107444 -0.106571 -0.104528 -0.101491 -0.061532 -0.05778 -0.054988 -0.053185 -0.051789 -0.050792 -0.049512 
-0.091315 -0.095442 -0.099127 -0.101391 -0.103258 -0.104444 -0.105053 -0.104319 -0.06636 -0.06277 -0.060912 -0.058424 -0.057298 -0.056147 -0.055116 
-0.069319 -0.076083 -0.081993 -0.085828 -0.08977 -0.091828 -0.094671 -0.095661 -0.064898 -0.061874 -0.059908 -0.058174 -0.056639 -0.055074 -0.054718 
-0.037379 -0.04637 -0.054227 -0.05961 -0.065563 -0.069684 -0.073859 -0.078113 -0.054717 -0.05314 -0.052452 -0.051064 -0.049292 -0.048676 -0.047976 
-0.008791 -0.016128 -0.023614 -0.029447 -0.036355 -0.04144 -0.046801 -0.052806 -0.041785 -0.040563 -0.041093 -0.039477 -0.038392 -0.038134 -0.037501 
0.022899 0.015696 0.008443 0.002336 -0.004394 -0.010254 -0.016465 -0.023083 -0.024644 -0.024373 -0.024947 -0.024716 -0.023683 -0.023601 -0.023863 
0.054328 0.047315 0.040771 0.034983 0.028532 0.021911 0.01617 0.008677 -0.004144 -0.00511 -0.006388 -0.006735 -0.006636 -0.006852 -0.007174 
0.078085 0.073826 0.068958 0.0642 0.058069 0.052453 0.047352 0.039794 0.015488 0.014074 0.011413 0.011221 0.01102 0.010356 0.010024 
0.09862 0.09571 0.092166 0.088597 0.083881 0.078695 0.074265 0.067632 0.035558 0.032777 0.029821 0.028761 0.028844 0.027112 0.026714 
0.106926 0.106413 0.105625 0.103706 0.101546 0.097928 0.094395 0.089128 0.05122 0.048013 0.045481 0.043717 0.04298 0.04122 0.041085 
0.100854 0.104552 0.106571 0.107063 0.106812 0.106118 0.104409 0.100516 0.061156 0.05795 0.055286 0.053351 0.052003 0.050696 0.049733 
0.090267 0.095334 0.098684 0.101098 0.102891 0.10318 0.104285 0.103434 0.066012 0.062675 0.06054 0.05893 0.0571 0.056155 0.054477 
0.070622 0.076768 0.082216 0.0858 0.089956 0.091714 0.094149 0.096085 0.063599 0.060866 0.059718 0.058152 0.056519 0.055762 0.054858 
0.041371 0.049296 0.05672 0.061654 0.067058 0.071356 0.07511 0.078015 0.056771 0.054007 0.05322 0.05152 0.050135 0.048995 0.048246 
0.007903 0.016076 0.024404 0.030444 0.0373 0.042877 0.04827 0.054015 0.043812 0.042048 0.042025 0.040789 0.038977 0.038655 0.037659 
-0.027227 -0.019031 -0.010981 -0.004314 0.00317 0.00965 0.01521 0.02358 0.023966 0.024276 0.025233 0.024543 0.023195 0.023937 0.023694 
-0.054336 -0.048148 -0.042012 -0.036635 -0.029951 -0.023553 -0.017393 -0.009451 0.003823 0.005183 0.006721 0.006798 0.006145 0.006847 0.007052 
-0.07732 -0.073459 -0.068401 -0.064408 -0.058593 -0.053259 -0.047392 -0.040032 -0.015369 -0.013381 -0.011531 -0.010553 -0.010879 -0.010133 -0.009352 
-0.100473 -0.096984 -0.09285 -0.088525 -0.08432 -0.079369 -0.0752 -0.068051 -0.034567 -0.032349 -0.030195 -0.028808 -0.028313 -0.027566 -0.02629 
-0.106845 -0.106771 -0.106021 -0.104 -0.101627 -0.097968 -0.095201 -0.089336 -0.050565 -0.047816 -0.044784 -0.043662 -0.042355 -0.041262 -0.040525 
-0.100054 -0.103489 -0.105787 -0.106989 -0.106719 -0.105397 -0.104522 -0.101004 -0.061187 -0.057365 -0.054484 -0.053154 -0.05171 -0.050135 -0.049043 
-0.091901 -0.095952 -0.099287 -0.101495 -0.103204 -0.103983 -0.104268 -0.103659 -0.066498 -0.062746 -0.061091 -0.059106 -0.057208 -0.056013 -0.054525 
-0.069588 -0.076836 -0.082211 -0.085952 -0.089452 -0.092186 -0.094262 -0.096335 -0.064822 -0.062213 -0.060604 -0.058748 -0.056688 -0.055711 -0.054682 
-0.036985 -0.04649 -0.054011 -0.059285 -0.065572 -0.069523 -0.074232 -0.078429 -0.055171 -0.053748 -0.052671 -0.050886 -0.049581 -0.048735 -0.047917 
-0.008606 -0.016351 -0.023753 -0.029362 -0.036483 -0.041783 -0.046708 -0.052709 -0.041435 -0.040557 -0.040671 -0.039461 -0.038006 -0.037752 -0.037529 
0.023458 0.015934 0.008468 0.002553 -0.003989 -0.010465 -0.015925 -0.022948 -0.024663 -0.024188 -0.024653 -0.024564 -0.023043 -0.023204 -0.023518 
0.055177 0.048496 0.041639 0.035499 0.028834 0.022735 0.016166 0.008832 -0.004343 -0.005079 -0.006625 -0.006881 -0.00608 -0.006627 -0.007147 
0.077948 0.074062 0.069119 0.063997 0.058571 0.052925 0.047367 0.039933 0.015426 0.013626 0.01145 0.010689 0.011069 0.01016 0.009553 
0.098934 0.096016 0.091998 0.088316 0.083876 0.078993 0.074596 0.067615 0.033872 0.031838 0.029693 0.028585 0.028312 0.027424 0.026409 
0.107344 0.10752 0.106255 0.104141 0.100993 0.098111 0.094942 0.088896 0.050833 0.047942 0.04486 0.043572 0.042589 0.041568 0.040118 
0.099493 0.10344 0.105525 0.10671 0.10671 0.105749 0.104509 0.101057 0.062239 0.05809 0.055303 0.053164 0.051731 0.050124 0.049318 
0.089971 0.093928 0.097211 0.100164 0.102205 0.102864 0.103545 0.10373 0.066743 0.062896 0.061493 0.058943 0.057761 0.055968 0.055089 
0.070947 0.076972 0.082087 0.085265 0.088923 0.091542 0.093976 0.095981 0.065023 0.062089 0.060993 0.058933 0.057679 0.056395 0.055376 
0.039989 0.048839 0.055576 0.061334 0.066568 0.071025 0.074744 0.078765 0.056726 0.054772 0.053618 0.05231 0.050076 0.049485 0.04925 
0.007471 0.015892 0.023345 0.030212 0.036673 0.042086 0.047595 0.053697 0.041935 0.041273 0.041229 0.040269 0.03849 0.038284 0.038218 
-0.026293 -0.018348 -0.010764 -0.004692 0.003087 0.00916 0.015689 0.021944 0.022869 0.023363 0.024425 0.023939 0.023026 0.02285 0.023459 
-0.053903 -0.04753 -0.041755 -0.035842 -0.029285 -0.023054 -0.017424 -0.010261 0.003526 0.005221 0.006185 0.006494 0.005853 0.006079 0.00702 
-0.077294 -0.07251 -0.067829 -0.063161 -0.057992 -0.052693 -0.047444 -0.040114 -0.015108 -0.013622 -0.011584 -0.01118 -0.011237 -0.010287 -0.009819 
-0.100376 -0.096654 -0.092302 -0.088513 -0.083644 -0.078972 -0.074125 -0.068073 -0.035103 -0.032884 -0.030039 -0.029158 -0.028883 -0.027395 -0.026593 
-0.106265 -0.106694 -0.105408 -0.103457 -0.101372 -0.097691 -0.094538 -0.089335 -0.052022 -0.047773 -0.04569 -0.043851 -0.042911 -0.041211 -0.040463 
-0.099185 -0.102822 -0.104803 -0.106245 -0.106345 -0.105233 -0.103959 -0.101138 -0.061333 -0.057864 -0.055458 -0.053365 -0.052243 -0.05073 -0.049893 
-0.091694 -0.095994 -0.099178 -0.101683 -0.102483 -0.103606 -0.104084 -0.103399 -0.066833 -0.063794 -0.061557 -0.059014 -0.058114 -0.056899 -0.055601 
-0.070091 -0.076939 -0.082416 -0.086486 -0.089843 -0.092426 -0.094438 -0.095687 -0.065773 -0.062932 -0.061437 -0.058912 -0.05726 -0.056093 -0.055298 
-0.036984 -0.045985 -0.053643 -0.0598 -0.065556 -0.070202 -0.073694 -0.078266 -0.055341 -0.05428 -0.053143 -0.051679 -0.050011 -0.048919 -0.04839 
-0.008475 -0.016611 -0.023465 -0.029109 -0.035812 -0.041754 -0.046689 -0.052649 -0.042109 -0.041092 -0.041242 -0.040268 -0.038911 -0.038574 -0.038244 
0.023071 0.015142 0.008617 0.002778 -0.004383 -0.01027 -0.016088 -0.022925 -0.02517 -0.02476 -0.025886 -0.025139 -0.02371 -0.024194 -0.024325 
0.056021 0.048489 0.041922 0.035877 0.028959 0.022891 0.01673 0.008899 -0.004391 -0.005393 -0.007124 -0.007027 -0.006353 -0.006991 -0.007246 
0.079228 0.074407 0.069832 0.06515 0.059083 0.053616 0.047815 0.040457 0.015327 0.014078 0.011533 0.010874 0.010934 0.010311 0.009364 
0.098566 0.095687 0.092424 0.088753 0.084048 0.07953 0.074914 0.067984 0.035521 0.033061 0.030059 0.028725 0.028566 0.027358 0.026242 
0.106477 0.10685 0.105734 0.103817 0.101143 0.097822 0.094722 0.08976 0.051819 0.048357 0.045731 0.044023 0.043268 0.041547 0.040749 
0.099185 0.103336 0.105599 0.106118 0.105867 0.105376 0.104016 0.101682 0.06058 0.057145 0.05531 0.053249 0.051896 0.05065 0.049361 
0.090453 0.094906 0.098329 0.100626 0.102421 0.10331 0.103799 0.103028 0.065831 0.062322 0.06043 0.058424 0.056887 0.055489 0.054701 
0.072035 0.078306 0.083375 0.087088 0.090589 0.092479 0.09443 0.09583 0.064576 0.06156 0.060095 0.058315 0.056802 0.055245 0.054702 
0.040813 0.04972 0.05691 0.062107 0.067497 0.071982 0.075363 0.078768 0.05599 0.053704 0.053201 0.051305 0.049522 0.048937 0.047702 
0.00814 0.017098 0.024597 0.030724 0.037788 0.043418 0.04839 0.053841 0.042726 0.041141 0.041182 0.039681 0.037987 0.037624 0.037605 
-0.025379 -0.016845 -0.009783 -0.003506 0.004126 0.010401 0.016351 0.023893 0.024573 0.024151 0.025109 0.024238 0.023448 0.023189 0.023816 
-0.053596 -0.047268 -0.041622 -0.035737 -0.028975 -0.022562 -0.016725 -0.008646 0.004803 0.00569 0.007239 0.007206 0.006774 0.00748 0.007048 
-0.078174 -0.073401 -0.068343 -0.06371 -0.057895 -0.05272 -0.047762 -0.040127 -0.015464 -0.013637 -0.011476 -0.010783 -0.011304 -0.009692 -0.009756 
-0.10107 -0.097174 -0.092817 -0.088963 -0.083914 -0.079493 -0.075099 -0.068011 -0.03482 -0.032622 -0.02977 -0.02894 -0.028803 -0.027329 -0.026668 
-0.106908 -0.107325 -0.10673 -0.104574 -0.101758 -0.09857 -0.094946 -0.088583 -0.050063 -0.047224 -0.044503 -0.042542 -0.041893 -0.040791 -0.040072 
-0.100457 -0.103937 -0.106548 -0.10727 -0.107234 -0.106215 -0.104658 -0.100771 -0.061224 -0.0576 -0.055238 -0.052222 -0.051339 -0.049585 -0.0487 
-0.091847 -0.096128 -0.099482 -0.10136 -0.103279 -0.104123 -0.104625 -0.104418 -0.06632 -0.062832 -0.061404 -0.058918 -0.057451 -0.055682 -0.054869 
-0.070006 -0.07709 -0.08207 -0.085907 -0.089745 -0.092344 -0.094543 -0.096482 -0.064146 -0.061161 -0.060228 -0.058441 -0.056697 -0.055431 -0.05465 
-0.037742 -0.046935 -0.054345 -0.06025 -0.065741 -0.070496 -0.074437 -0.078484 -0.055451 -0.05322 -0.052264 -0.050783 -0.04902 -0.048495 -0.047662 
-0.008807 -0.01706 -0.024387 -0.0302 -0.036551 -0.042283 -0.047283 -0.053665 -0.041573 -0.04021 -0.040462 -0.039231 -0.03781 -0.038193 -0.037646 
0.022335 0.014514 0.007845 0.001611 -0.005237 -0.010629 -0.016408 -0.022963 -0.024328 -0.023739 -0.024614 -0.024205 -0.023353 -0.02322 -0.023264 
0.05513 0.047589 0.040666 0.03477 0.028054 0.022147 0.016103 0.00916 -0.00428 -0.005055 -0.006231 -0.006487 -0.005879 -0.006147 -0.006546 
0.078625 0.073819 0.068384 0.064019 0.05819 0.052375 0.047146 0.039524 0.01585 0.013978 0.011883 0.011613 0.0117 0.010428 0.009871 
0.097667 0.094729 0.091422 0.087863 0.083156 0.078436 0.073909 0.067483 0.034936 0.032202 0.030215 0.029075 0.028561 0.027737 0.027042 
0.106743 0.106042 0.10559 0.103568 0.100763 0.097434 0.093718 0.088479 0.051019 0.047514 0.045298 0.0432 0.042626 0.041442 0.0407 
0.099948 0.103212 0.105725 0.10599 0.105845 0.105348 0.103349 0.100086 0.060468 0.05735 0.05461 0.052363 0.051752 0.049977 0.048994 
0.090595 0.094951 0.0981 0.100343 0.101873 0.103162 0.103499 0.10283 0.06529 0.062469 0.060372 0.058181 0.056784 0.055254 0.054854 
0.071981 0.07822 0.08278 0.08696 0.090058 0.092105 0.094948 0.095725 0.064373 0.061566 0.060358 0.058281 0.056478 0.055148 0.055009 
0.040168 0.049326 0.056165 0.061603 0.067216 0.071672 0.075871 0.078924 0.055692 0.053876 0.052965 0.051099 0.04997 0.049252 0.048343 
0.008058 0.016581 0.024171 0.030305 0.037256 0.043053 0.04836 0.054005 0.042139 0.04117 0.040717 0.039636 0.038329 0.038281 0.03781 
-0.025274 -0.017097 -0.009489 -0.002993 0.004101 0.00963 0.016292 0.0234 0.023629 0.023332 0.024647 0.024244 0.022909 0.022852 0.022909 
-0.053904 -0.047073 -0.040825 -0.035248 -0.028752 -0.022978 -0.016693 -0.009244 0.003096 0.004128 0.006242 0.006247 0.005906 0.005864 0.006285 
-0.076765 -0.072421 -0.067798 -0.063061 -0.057863 -0.052617 -0.04703 -0.039821 -0.015178 -0.013663 -0.011985 -0.011455 -0.011661 -0.010994 -0.010046 
-0.099908 -0.096094 -0.092172 -0.08802 -0.083293 -0.078855 -0.074024 -0.066887 -0.034164 -0.032137 -0.029814 -0.028929 -0.028685 -0.027637 -0.027061 
-0.107531 -0.107274 -0.106164 -0.10415 -0.101002 -0.097692 -0.094667 -0.088842 -0.051614 -0.047983 -0.045443 -0.043822 -0.042729 -0.041522 -0.040812 
-0.100108 -0.103736 -0.10624 -0.106863 -0.107104 -0.106081 -0.104725 -0.101211 -0.061008 -0.057462 -0.055318 -0.05342 -0.052361 -0.050564 -0.049357 
-0.091496 -0.095573 -0.098983 -0.101398 -0.103595 -0.103869 -0.104494 -0.103571 -0.065141 -0.062353 -0.060175 -0.05856 -0.057243 -0.055576 -0.054739 
-0.070731 -0.07741 -0.08254 -0.086529 -0.089997 -0.091953 -0.094298 -0.096258 -0.064772 -0.061609 -0.059729 -0.057821 -0.056283 -0.054892 -0.054551 
-0.037373 -0.046597 -0.054444 -0.060347 -0.065804 -0.070357 -0.07431 -0.078516 -0.055874 -0.05357 -0.052549 -0.050684 -0.049378 -0.048057 -0.047387 
-0.007786 -0.015877 -0.023074 -0.029645 -0.036191 -0.041711 -0.047269 -0.05346 -0.041636 -0.040747 -0.041 -0.039822 -0.038286 -0.037885 -0.03718 
0.022021 0.014609 0.007749 0.001599 -0.004702 -0.01112 -0.016413 -0.023914 -0.025503 -0.0253 -0.025922 -0.025063 -0.024073 -0.024194 -0.024296 
0.053672 0.046916 0.040301 0.03417 0.027974 0.02184 0.015857 0.007908 -0.005515 -0.006315 -0.007856 -0.007845 -0.007147 -0.007579 -0.007682 
0.078861 0.074062 0.068916 0.064078 0.058335 0.052438 0.046821 0.039471 0.015868 0.014022 0.011585 0.01075 0.010721 0.010059 0.009264 
0.097978 0.095001 0.091458 0.087912 0.083226 0.07873 0.07401 0.067972 0.034793 0.032436 0.030258 0.028511 0.028483 0.027256 0.026319 
0.10675 0.106241 0.105148 0.102961 0.10046 0.097506 0.093799 0.089136 0.049955 0.046823 0.044249 0.042735 0.042412 0.041066 0.039991 
0.100987 0.104378 0.106307 0.107079 0.10666 0.105302 0.103717 0.100139 0.060298 0.056897 0.053629 0.05254 0.051279 0.049669 0.048595 
0.090707 0.0953 0.098782 0.101344 0.102824 0.103681 0.103983 0.102904 0.065818 0.062596 0.060262 0.057983 0.056613 0.055228 0.054243 
0.072113 0.078065 0.083155 0.086507 0.090327 0.092761 0.094873 0.096638 0.065866 0.062432 0.061119 0.058614 0.057007 0.05618 0.055048 
0.040921 0.049243 0.056639 0.062263 0.067552 0.071915 0.075637 0.079585 0.057654 0.05524 0.054284 0.052761 0.050819 0.049793 0.049516 
0.007883 0.015939 0.024147 0.030807 0.037294 0.043412 0.048152 0.054279 0.043229 0.042189 0.042267 0.040885 0.039341 0.038628 0.038907 
-0.025467 -0.017217 -0.010211 -0.003608 0.003609 0.009914 0.016039 0.023601 0.024784 0.024914 0.026033 0.025054 0.024237 0.024186 0.024141 
-0.054483 -0.047259 -0.041709 -0.035612 -0.029204 -0.023389 -0.017182 -0.00895 0.004457 0.006386 0.007432 0.007736 0.007367 0.007633 0.00792 
-0.078073 -0.073431 -0.068537 -0.063895 -0.058237 -0.052907 -0.047689 -0.039936 -0.014334 -0.012083 -0.01063 -0.009866 -0.010222 -0.009453 -0.008697 
-0.099992 -0.096522 -0.092738 -0.088901 -0.084155 -0.07919 -0.074402 -0.067664 -0.033873 -0.031666 -0.029039 -0.028081 -0.028068 -0.026642 -0.02595 
-0.106349 -0.106973 -0.105958 -0.104167 -0.101744 -0.098386 -0.094698 -0.089252 -0.051274 -0.047785 -0.044986 -0.043423 -0.04241 -0.040622 -0.03982 
-0.099629 -0.103944 -0.105945 -0.106886 -0.106676 -0.106017 -0.10421 -0.101581 -0.060778 -0.057204 -0.054684 -0.053125 -0.051629 -0.049951 -0.048619 
-0.092217 -0.096395 -0.099654 -0.10185 -0.103088 -0.104038 -0.104483 -0.103778 -0.065499 -0.062587 -0.060367 -0.058206 -0.057022 -0.05552 -0.054351 
-0.071502 -0.078296 -0.083181 -0.087233 -0.090631 -0.093187 -0.095254 -0.096305 -0.064883 -0.061782 -0.060349 -0.057504 -0.056373 -0.054861 -0.054653 
-0.038285 -0.04793 -0.0553 -0.061226 -0.066774 -0.071727 -0.07481 -0.079011 -0.056223 -0.053999 -0.052917 -0.050931 -0.049323 -0.048119 -0.048099 
-0.008437 -0.016395 -0.023839 -0.030158 -0.036831 -0.042625 -0.04767 -0.053758 -0.042858 -0.042161 -0.041791 -0.040081 -0.038559 -0.038236 -0.037772 
0.022887 0.015903 0.008934 0.002793 -0.004842 -0.010472 -0.016434 -0.024147 -0.025514 -0.025431 -0.026532 -0.024853 -0.024102 -0.0245 -0.024322 
0.054581 0.047693 0.041061 0.035731 0.028474 0.022098 0.016443 0.007955 -0.005078 -0.006181 -0.007487 -0.007538 -0.006857 -0.007962 -0.008341 
0.078513 0.073881 0.068895 0.06458 0.058942 0.052777 0.047118 0.039579 0.014911 0.01268 0.01118 0.0101 0.010608 0.009259 0.0087 
0.09906 0.096226 0.09224 0.088576 0.084004 0.079485 0.07454 0.067769 0.033521 0.031247 0.028712 0.027826 0.027449 0.026893 0.025926 
0.107719 0.107445 0.106185 0.104335 0.101394 0.098415 0.094603 0.089226 0.04915 0.04625 0.043855 0.042046 0.041552 0.040334 0.039392 
0.101509 0.104454 0.107185 0.107962 0.107464 0.106588 0.104599 0.10083 0.06076 0.057032 0.054575 0.051874 0.051047 0.048681 0.048059 
0.090985 0.095406 0.099158 0.101593 0.103268 0.104695 0.104976 0.103995 0.067267 0.063715 0.061034 0.058307 0.056729 0.055115 0.054111 
0.070251 0.077113 0.081944 0.085941 0.089721 0.092652 0.094705 0.097239 0.065198 0.062517 0.060825 0.058334 0.057094 0.055853 0.05506 
0.040643 0.049188 0.055969 0.061358 0.067016 0.071227 0.07534 0.079114 0.056131 0.054356 0.053132 0.051492 0.050613 0.049334 0.049024 
0.008857 0.017333 0.024916 0.030769 0.037606 0.043258 0.048657 0.053931 0.042412 0.04141 0.041144 0.039858 0.038872 0.038256 0.037981 
-0.025285 -0.016942 -0.009254 -0.002956 0.00415 0.010766 0.016347 0.023792 0.024094 0.023977 0.025087 0.024411 0.023196 0.023282 0.023401 
-0.052818 -0.046769 -0.040493 -0.034751 -0.028456 -0.022034 -0.01626 -0.008271 0.005261 0.005607 0.006937 0.007631 0.006436 0.007125 0.007233 
-0.077339 -0.072617 -0.067707 -0.063262 -0.057677 -0.05197 -0.046272 -0.038782 -0.013945 -0.01273 -0.01075 -0.01018 -0.010249 -0.009376 -0.009374 
-0.100251 -0.096258 -0.092412 -0.088674 -0.083359 -0.078617 -0.073939 -0.066998 -0.034173 -0.031331 -0.028792 -0.028429 -0.0281 -0.026633 -0.026078 
-0.106331 -0.106451 -0.10568 -0.104154 -0.100849 -0.097696 -0.094674 -0.088558 -0.049719 -0.0464 -0.043726 -0.04229 -0.042268 -0.040287 -0.039372 
-0.101256 -0.10434 -0.106236 -0.10729 -0.107205 -0.10607 -0.10424 -0.100494 -0.060108 -0.056811 -0.05394 -0.05177 -0.050442 -0.04915 -0.048345 
-0.092464 -0.096821 -0.099947 -0.102035 -0.103974 -0.10486 -0.104675 -0.103795 -0.066162 -0.062824 -0.060375 -0.05835 -0.056315 -0.055074 -0.054279 
-0.070309 -0.077202 -0.082751 -0.086859 -0.090289 -0.093044 -0.095459 -0.097065 -0.064846 -0.061823 -0.05985 -0.058299 -0.057009 -0.055221 -0.054006 
-0.038876 -0.04746 -0.05482 -0.060752 -0.066229 -0.071041 -0.075321 -0.079502 -0.056524 -0.054198 -0.053107 -0.051398 -0.050106 -0.048891 -0.048055 
-0.008957 -0.017258 -0.024041 -0.029994 -0.037019 -0.042928 -0.047807 -0.054121 -0.042812 -0.041927 -0.042041 -0.040257 -0.039166 -0.038832 -0.038805 
0.022466 0.015041 0.008231 0.00205 -0.005077 -0.010947 -0.016545 -0.023837 -0.025105 -0.02477 -0.025897 -0.024989 -0.024484 -0.02459 -0.024113 
0.053646 0.047462 0.040675 0.034753 0.028316 0.021882 0.015599 0.008571 -0.005045 -0.005702 -0.007674 -0.007542 -0.006861 -0.007252 -0.007204 
0.078298 0.073768 0.068641 0.063882 0.058257 0.052036 0.046624 0.039411 0.014542 0.012638 0.010603 0.010072 0.010517 0.010067 0.008695 
0.09896 0.095589 0.091633 0.088201 0.083321 0.078722 0.074082 0.066805 0.032829 0.031158 0.028991 0.027866 0.027537 0.026452 0.025478 
0.107265 0.106869 0.105464 0.104228 0.10113 0.097871 0.09414 0.088238 0.050154 0.046793 0.04422 0.042636 0.04187 0.04014 0.039533 
0.100486 0.103886 0.106202 0.106962 0.107127 0.105686 0.104528 0.100494 0.061299 0.056946 0.054512 0.052283 0.050902 0.049693 0.048505 
0.090715 0.095169 0.098867 0.100854 0.102879 0.103727 0.104493 0.103434 0.065371 0.062191 0.060252 0.058208 0.056318 0.055233 0.054456 
0.071707 0.077953 0.083105 0.086589 0.089888 0.092591 0.094532 0.096434 0.063898 0.061136 0.05975 0.058074 0.056336 0.055076 0.054732 
0.041865 0.050018 0.05697 0.062094 0.067903 0.072379 0.075768 0.07938 0.055708 0.053992 0.053024 0.051256 0.049682 0.048747 0.048479 
0.009668 0.017836 0.025173 0.031746 0.038636 0.044274 0.049161 0.054642 0.043239 0.041701 0.041568 0.040454 0.038872 0.038271 0.038262 
-0.024816 -0.016556 -0.009465 -0.002567 0.004733 0.01102 0.017119 0.024233 0.025767 0.025216 0.025723 0.02537 0.024154 0.02412 0.024111 
-0.053313 -0.047057 -0.041345 -0.035643 -0.028529 -0.022102 -0.015941 -0.007792 0.005319 0.006972 0.00762 0.007932 0.007453 0.007724 0.00796 
-0.077713 -0.073122 -0.068324 -0.063858 -0.058288 -0.052709 -0.047016 -0.038708 -0.01405 -0.012743 -0.010899 -0.010264 -0.009939 -0.009395 -0.008845 
-0.100383 -0.096527 -0.092638 -0.089005 -0.084221 -0.079317 -0.074653 -0.067354 -0.034314 -0.031942 -0.029312 -0.028725 -0.027711 -0.026788 -0.026108 
-0.10592 -0.10645 -0.105612 -0.103734 -0.101115 -0.09774 -0.094604 -0.088948 -0.05101 -0.047101 -0.044603 -0.042934 -0.041839 -0.040525 -0.039668 
-0.100008 -0.103974 -0.105577 -0.106171 -0.106399 -0.105834 -0.104248 -0.101042 -0.060854 -0.057752 -0.05476 -0.052767 -0.051633 -0.049762 -0.048906 
-0.09208 -0.096427 -0.099314 -0.101412 -0.103169 -0.104062 -0.104632 -0.103831 -0.066258 -0.063057 -0.060575 -0.059024 -0.05734 -0.055828 -0.055051 
-0.070713 -0.077095 -0.082287 -0.085917 -0.089973 -0.092408 -0.09456 -0.096343 -0.064129 -0.06135 -0.060162 -0.057824 -0.056215 -0.055166 -0.054602 
-0.039204 -0.04787 -0.055126 -0.0606 -0.066479 -0.071022 -0.074592 -0.078782 -0.055091 -0.053295 -0.052551 -0.050597 -0.049497 -0.048619 -0.048029 
-0.009703 -0.017876 -0.025194 -0.031029 -0.038042 -0.042972 -0.048231 -0.053663 -0.042532 -0.041309 -0.040986 -0.039997 -0.039106 -0.038815 -0.03848 
0.021814 0.014414 0.00738 0.001267 -0.006254 -0.011456 -0.017191 -0.024078 -0.025108 -0.02519 -0.025891 -0.024966 -0.023941 -0.023863 -0.024483 
0.053684 0.046633 0.040126 0.033942 0.027257 0.021306 0.015463 0.007677 -0.004635 -0.005599 -0.007372 -0.007483 -0.006429 -0.006716 -0.007394 
0.077845 0.073136 0.06829 0.06364 0.057698 0.051742 0.046514 0.038695 0.015698 0.013778 0.011716 0.010865 0.010811 0.009906 0.009439 
0.097006 0.094576 0.090919 0.087331 0.082964 0.078012 0.073703 0.066848 0.034858 0.032124 0.029895 0.029149 0.028474 0.02737 0.026357 
0.105959 0.105625 0.10454 0.102495 0.100328 0.097044 0.093237 0.088337 0.050202 0.047268 0.04475 0.043224 0.042684 0.041355 0.040438 
0.10049 0.103447 0.105792 0.10681 0.106569 0.104929 0.103194 0.099701 0.060231 0.057016 0.054617 0.05231 0.050966 0.049751 0.049255 
0.090431 0.094964 0.098347 0.100728 0.102607 0.103161 0.103542 0.102734 0.064883 0.061991 0.060015 0.057978 0.056372 0.055302 0.054451 
0.072209 0.078609 0.083269 0.086363 0.090128 0.092567 0.094513 0.095935 0.063506 0.060754 0.059578 0.057803 0.056391 0.055184 0.054252 
0.041829 0.051162 0.057812 0.062991 0.068814 0.072382 0.076172 0.078937 0.056455 0.054033 0.053136 0.050825 0.049458 0.04872 0.048331 
0.008231 0.017501 0.025373 0.031658 0.038818 0.044397 0.049131 0.055323 0.043173 0.042063 0.041817 0.03974 0.03901 0.038417 0.038319 
-0.024953 -0.016965 -0.008905 -0.002832 0.00448 0.011326 0.017292 0.024707 0.024768 0.024645 0.025888 0.025038 0.024397 0.023693 0.024097 
-0.052718 -0.046357 -0.040284 -0.034802 -0.027972 -0.021808 -0.015437 -0.008484 0.005351 0.006441 0.007758 0.00788 0.007073 0.007371 0.007931 
-0.077084 -0.072358 -0.067899 -0.063155 -0.057671 -0.051938 -0.046642 -0.038984 -0.014758 -0.012413 -0.011017 -0.009846 -0.010352 -0.009376 -0.009181 
-0.09971 -0.095977 -0.092353 -0.088257 -0.083897 -0.078725 -0.073758 -0.067249 -0.034833 -0.032106 -0.02969 -0.028155 -0.027846 -0.027236 -0.026193 
-0.105835 -0.106327 -0.105307 -0.103246 -0.100763 -0.097549 -0.093901 -0.088706 -0.050412 -0.047015 -0.044558 -0.042897 -0.041536 -0.04092 -0.039581 
-0.100113 -0.104115 -0.105707 -0.106496 -0.106348 -0.105596 -0.103905 -0.099926 -0.060261 -0.056629 -0.054427 -0.052075 -0.050985 -0.04957 -0.049118 
-0.092724 -0.096691 -0.100091 -0.102225 -0.103316 -0.104405 -0.104187 -0.103093 -0.065632 -0.062629 -0.060429 -0.058148 -0.057394 -0.055673 -0.054787 
-0.070621 -0.077269 -0.083063 -0.086663 -0.090331 -0.092725 -0.095129 -0.096421 -0.065234 -0.062192 -0.060666 -0.058369 -0.056774 -0.055868 -0.054457 
-0.037356 -0.046621 -0.05415 -0.059976 -0.066006 -0.070828 -0.074956 -0.079155 -0.056514 -0.05422 -0.053741 -0.051952 -0.05015 -0.049465 -0.048596 
-0.008779 -0.016929 -0.024051 -0.029919 -0.036539 -0.04268 -0.047615 -0.054219 -0.041825 -0.041359 -0.041389 -0.040915 -0.039718 -0.039138 -0.038867 
0.02142 0.013622 0.007023 0.001622 -0.005812 -0.011015 -0.017289 -0.023632 -0.024431 -0.024627 -0.025293 -0.025007 -0.024015 -0.024211 -0.024466 
0.054052 0.046488 0.039884 0.033946 0.027003 0.021188 0.015107 0.008366 -0.004644 -0.005445 -0.007056 -0.007314 -0.006416 -0.006713 -0.007103 
0.078698 0.07339 0.068317 0.063191 0.057409 0.05139 0.046172 0.038776 0.014942 0.013035 0.011174 0.010367 0.010568 0.009898 0.009702 
0.098257 0.095087 0.091893 0.087644 0.082999 0.078407 0.073748 0.066712 0.033818 0.031223 0.029173 0.028073 0.027914 0.026845 0.02607 
0.107526 0.107215 0.10607 0.103642 0.101336 0.098056 0.094505 0.088467 0.050692 0.047103 0.044808 0.042816 0.042338 0.041428 0.039788 
0.101217 0.104562 0.106373 0.107114 0.106862 0.106283 0.104098 0.101043 0.061066 0.057332 0.054759 0.053029 0.051697 0.050194 0.049208 
0.090731 0.095366 0.099087 0.101069 0.10265 0.104102 0.104243 0.103675 0.065679 0.062584 0.060385 0.058507 0.057162 0.055586 0.055074 
0.072136 0.0779 0.083177 0.087045 0.090418 0.09294 0.095074 0.096447 0.06447 0.061123 0.060515 0.058309 0.056666 0.056009 0.054688 
0.041627 0.049892 0.056855 0.062734 0.06813 0.07244 0.075402 0.079841 0.056366 0.053693 0.053368 0.051972 0.04986 0.049663 0.048798 
0.008654 0.017663 0.025445 0.031191 0.038694 0.043991 0.048748 0.054742 0.042812 0.042006 0.041658 0.040432 0.038733 0.03868 0.038561 
-0.024923 -0.016468 -0.009007 -0.002578 0.004781 0.011001 0.017188 0.023947 0.024206 0.02467 0.025432 0.0249 0.023453 0.023583 0.02356 
-0.053022 -0.046282 -0.040585 -0.034478 -0.028225 -0.022078 -0.015978 -0.008463 0.00438 0.005677 0.007086 0.007262 0.006914 0.007178 0.007587 
-0.076969 -0.072142 -0.067435 -0.062764 -0.057265 -0.052086 -0.046248 -0.039218 -0.014852 -0.013099 -0.010752 -0.010536 -0.01033 -0.009407 -0.009363 
-0.099608 -0.095805 -0.091887 -0.087877 -0.083272 -0.078234 -0.073384 -0.066568 -0.034962 -0.032646 -0.029997 -0.028751 -0.028644 -0.027026 -0.027048 
-0.105979 -0.105836 -0.105177 -0.103409 -0.100499 -0.097434 -0.094128 -0.088239 -0.051 -0.047948 -0.045944 -0.043961 -0.042681 -0.041522 -0.040675 
-0.100572 -0.103568 -0.10575 -0.106193 -0.106313 -0.10584 -0.103894 -0.101073 -0.060825 -0.057383 -0.055379 -0.053135 -0.052024 -0.050965 -0.049865 
-0.093163 -0.096875 -0.099946 -0.101827 -0.103411 -0.104411 -0.104109 -0.103899 -0.06722 -0.063218 -0.061608 -0.059039 -0.058213 -0.056647 -0.055401 
-0.071013 -0.078002 -0.082943 -0.087184 -0.090274 -0.093211 -0.094964 -0.096727 -0.065818 -0.062491 -0.061163 -0.058808 -0.057313 -0.056443 -0.055213 
-0.038633 -0.047529 -0.054877 -0.060498 -0.066666 -0.07082 -0.074765 -0.079076 -0.055358 -0.053851 -0.052834 -0.050766 -0.049567 -0.049264 -0.048543 
-0.009799 -0.017215 -0.024772 -0.030602 -0.037274 -0.042119 -0.04755 -0.053482 -0.042 -0.041114 -0.041629 -0.040248 -0.03853 -0.038257 -0.037917 
0.021011 0.013794 0.006829 0.000863 -0.006036 -0.011877 -0.017904 -0.025211 -0.025668 -0.025384 -0.026097 -0.025424 -0.024319 -0.02439 -0.024539 
0.053241 0.046414 0.039865 0.033838 0.026891 0.020608 0.015242 0.007168 -0.005773 -0.006222 -0.007608 -0.007576 -0.006683 -0.007953 -0.00756 
0.078339 0.073384 0.068033 0.063125 0.056928 0.051612 0.045947 0.038027 0.014323 0.012472 0.010721 0.010009 0.010366 0.009327 0.009169 
0.097506 0.09474 0.091158 0.087632 0.082847 0.078424 0.072873 0.065757 0.033824 0.030523 0.028676 0.027644 0.026952 0.026385 0.025334 
0.106802 0.106594 0.105103 0.103478 0.100629 0.097426 0.093652 0.088338 0.050577 0.046807 0.044569 0.042657 0.041867 0.040492 0.039951 
0.100842 0.103933 0.105805 0.106993 0.106363 0.105612 0.103894 0.100793 0.060503 0.057193 0.054759 0.052951 0.05179 0.050092 0.049227 
0.090445 0.09526 0.099042 0.101156 0.103081 0.103426 0.104244 0.102903 0.064973 0.061985 0.05987 0.058382 0.056772 0.055524 0.054413 
0.072332 0.078564 0.083587 0.087039 0.090955 0.092635 0.095146 0.096222 0.064415 0.061398 0.059698 0.057824 0.056673 0.055397 0.054522 
0.041736 0.050153 0.057386 0.062914 0.068164 0.07226 0.075844 0.079808 0.055709 0.053502 0.05293 0.051472 0.050077 0.049101 0.04808 
0.0093 0.018456 0.026188 0.031921 0.038736 0.043851 0.048975 0.054564 0.042188 0.041032 0.040973 0.039782 0.038414 0.038055 0.037633 
-0.023852 -0.015589 -0.008135 -0.00178 0.005601 0.011552 0.017419 0.024328 0.025421 0.025042 0.024931 0.024403 0.023485 0.023587 0.023548 
-0.052606 -0.046607 -0.040379 -0.034129 -0.02772 -0.021195 -0.015061 -0.007184 0.005122 0.006117 0.00733 0.007819 0.007121 0.007603 0.007556 
-0.076428 -0.071597 -0.067372 -0.062764 -0.057197 -0.051399 -0.045844 -0.038299 -0.015306 -0.012841 -0.011024 -0.010301 -0.010272 -0.009558 -0.009121 
-0.098723 -0.094868 -0.090987 -0.087578 -0.082288 -0.077511 -0.073459 -0.066621 -0.035381 -0.03217 -0.030222 -0.028824 -0.028517 -0.027423 -0.026366 
-0.104952 -0.10535 -0.104081 -0.102578 -0.099322 -0.096148 -0.093076 -0.087934 -0.051244 -0.047844 -0.044987 -0.043372 -0.042956 -0.041496 -0.04045 
-0.09955 -0.102701 -0.105092 -0.10571 -0.105534 -0.10427 -0.102783 -0.099674 -0.060604 -0.056831 -0.054497 -0.05308 -0.051861 -0.05053 -0.049846 
-0.093088 -0.096885 -0.099755 -0.101654 -0.102949 -0.10329 -0.103752 -0.102538 -0.066261 -0.06288 -0.061104 -0.059004 -0.057261 -0.056246 -0.055295 
-0.071692 -0.078759 -0.083604 -0.087282 -0.090573 -0.093009 -0.094891 -0.096183 -0.064622 -0.062292 -0.060529 -0.058451 -0.057015 -0.056018 -0.054934 
-0.038845 -0.048233 -0.055632 -0.061185 -0.067155 -0.071835 -0.075643 -0.078897 -0.054984 -0.053225 -0.052236 -0.051031 -0.049816 -0.048815 -0.048152 
-0.009626 -0.017898 -0.025107 -0.030941 -0.037713 -0.043413 -0.048457 -0.053831 -0.041083 -0.040901 -0.040735 -0.039728 -0.03814 -0.03779 -0.037623 
0.021012 0.013308 0.006103 0.000373 -0.006454 -0.012287 -0.017654 -0.02435 -0.024079 -0.024727 -0.025489 -0.024638 -0.023372 -0.023897 -0.023895 
0.052543 0.045109 0.03883 0.03274 0.026082 0.020266 0.014236 0.007299 -0.005378 -0.005972 -0.00693 -0.007185 -0.006815 -0.007404 -0.007417 
0.077925 0.072586 0.068001 0.062613 0.056612 0.051043 0.045445 0.037808 0.014973 0.012877 0.011498 0.010592 0.010724 0.009968 0.009285 
0.098266 0.095032 0.091316 0.087331 0.082254 0.077137 0.072875 0.06632 0.034226 0.031646 0.029335 0.028466 0.028183 0.026816 0.0257 
0.106046 0.105966 0.104858 0.10309 0.100237 0.096679 0.093358 0.087902 0.049584 0.046626 0.04447 0.042776 0.041518 0.040472 0.039558 
0.100105 0.103853 0.105667 0.106479 0.106377 0.105181 0.10359 0.099305 0.061348 0.057247 0.054811 0.052333 0.050787 0.049758 0.049031 
0.090629 0.094908 0.09847 0.100551 0.102257 0.103035 0.10335 0.103231 0.067145 0.063447 0.06115 0.05877 0.057338 0.055819 0.055151 
0.071695 0.077037 0.082543 0.086366 0.089696 0.092407 0.094207 0.096817 0.065367 0.062643 0.061092 0.05923 0.05726 0.056603 0.055677 
0.041201 0.049701 0.056527 0.062055 0.067674 0.071872 0.075825 0.079304 0.056364 0.055061 0.053892 0.052669 0.050916 0.050372 0.049725 
0.00934 0.018045 0.025587 0.031413 0.038521 0.043745 0.049188 0.054448 0.042299 0.041688 0.042063 0.04069 0.039863 0.03922 0.03906 
-0.023004 -0.01535 -0.007669 -0.001549 0.005511 0.011754 0.017259 0.023883 0.025276 0.024963 0.025924 0.024883 0.02362 0.024591 0.024463 
-0.052468 -0.045833 -0.039552 -0.033922 -0.027242 -0.020929 -0.015492 -0.00782 0.005689 0.006884 0.007604 0.008231 0.00707 0.007765 0.008185 
-0.077164 -0.072323 -0.067676 -0.06261 -0.056952 -0.051345 -0.045683 -0.03804 -0.014724 -0.012963 -0.010939 -0.009934 -0.009547 -0.009456 -0.008897 
-0.098865 -0.095103 -0.091662 -0.087144 -0.08316 -0.078156 -0.072812 -0.066486 -0.034156 -0.03203 -0.029454 -0.02876 -0.027688 -0.026475 -0.025946 
-0.106546 -0.105726 -0.105083 -0.103007 -0.100799 -0.09738 -0.093452 -0.087926 -0.049352 -0.04632 -0.044124 -0.042633 -0.04149 -0.040482 -0.039436 
-0.101315 -0.104373 -0.106642 -0.107089 -0.106511 -0.105698 -0.10387 -0.099793 -0.059913 -0.056091 -0.053873 -0.051993 -0.050642 -0.049584 -0.048988 
-0.092753 -0.097034 -0.100007 -0.102507 -0.103349 -0.10415 -0.104691 -0.103555 -0.066704 -0.062459 -0.060444 -0.058531 -0.056803 -0.055356 -0.054728 
-0.071225 -0.077832 -0.082728 -0.087258 -0.090679 -0.093107 -0.095288 -0.097026 -0.064859 -0.061856 -0.060287 -0.057993 -0.056349 -0.05532 -0.054238 
-0.039094 -0.048296 -0.055798 -0.061403 -0.067173 -0.071912 -0.075416 -0.079593 -0.055914 -0.053888 -0.053128 -0.050936 -0.049837 -0.048979 -0.048378 
-0.00968 -0.01786 -0.025236 -0.031643 -0.037779 -0.043547 -0.048792 -0.055222 -0.044331 -0.042711 -0.042649 -0.041344 -0.039855 -0.039853 -0.038852 
0.022488 0.014736 0.007454 0.001029 -0.005625 -0.011796 -0.017643 -0.02546 -0.02689 -0.026342 -0.027238 -0.026589 -0.025395 -0.025704 -0.02502 
0.054196 0.046903 0.040133 0.034432 0.027668 0.021263 0.01567 0.007528 -0.00577 -0.006161 -0.008329 -0.008004 -0.007675 -0.008017 -0.008426 
0.077512 0.072932 0.068411 0.063227 0.057623 0.051902 0.046504 0.038626 0.014423 0.012421 0.010288 0.009504 0.009924 0.008963 0.008651 
0.097779 0.094758 0.091335 0.08782 0.082639 0.078301 0.07324 0.066628 0.03426 0.031338 0.028875 0.027556 0.027171 0.026352 0.025383 
0.106542 0.106382 0.104746 0.103583 0.100233 0.097682 0.093901 0.088733 0.050164 0.047074 0.044292 0.04271 0.041689 0.040497 0.039128 
0.100752 0.104264 0.105809 0.10655 0.106467 0.105387 0.104091 0.100398 0.059857 0.055689 0.054096 0.051641 0.050834 0.049501 0.048339 
0.091864 0.096025 0.099678 0.102226 0.103429 0.104064 0.103905 0.103345 0.064862 0.061242 0.059563 0.057646 0.056436 0.055653 0.054032 
0.073147 0.07919 0.084556 0.08865 0.091593 0.094291 0.095383 0.096756 0.064056 0.061255 0.05959 0.057852 0.056287 0.055504 0.05439 
0.042234 0.051309 0.058049 0.063673 0.069115 0.073422 0.077304 0.079755 0.057038 0.053821 0.05372 0.051406 0.049383 0.048857 0.048374 
0.009034 0.018342 0.026035 0.032745 0.039253 0.044966 0.049994 0.055955 0.043479 0.041797 0.042171 0.040755 0.038976 0.038333 0.037952 
-0.024337 -0.016126 -0.008303 -0.001829 0.005572 0.011889 0.017543 0.025712 0.025237 0.025402 0.025899 0.025281 0.024373 0.02404 0.0238 
-0.05251 -0.04615 -0.039947 -0.034671 -0.027619 -0.021392 -0.015537 -0.00726 0.005691 0.006566 0.00801 0.008155 0.007293 0.008027 0.00808 
-0.076791 -0.071882 -0.067043 -0.06257 -0.056975 -0.051254 -0.046197 -0.03836 -0.014483 -0.012579 -0.010437 -0.00947 -0.010102 -0.009144 -0.008292 
-0.0993 -0.095536 -0.091515 -0.08764 -0.082909 -0.078313 -0.073182 -0.066421 -0.03348 -0.030955 -0.028734 -0.027754 -0.027926 -0.026571 -0.025743 
-0.106506 -0.106627 -0.105502 -0.103685 -0.10077 -0.097348 -0.093663 -0.087925 -0.049789 -0.046594 -0.04436 -0.042678 -0.041892 -0.040514 -0.039794 
-0.100956 -0.104296 -0.106495 -0.106991 -0.106671 -0.105283 -0.104058 -0.100836 -0.060555 -0.057099 -0.054791 -0.052472 -0.050774 -0.049843 -0.048671 
-0.09283 -0.097081 -0.100415 -0.102273 -0.103931 -0.104936 -0.10494 -0.10376 -0.064961 -0.061938 -0.059984 -0.057779 -0.056437 -0.055243 -0.054084 
-0.071907 -0.078711 -0.084247 -0.088062 -0.09162 -0.094092 -0.096058 -0.096407 -0.064606 -0.061391 -0.059936 -0.057869 -0.056117 -0.055381 -0.054089 
-0.039602 -0.048297 -0.056314 -0.06231 -0.067794 -0.071973 -0.076094 -0.08015 -0.056212 -0.053717 -0.052854 -0.051265 -0.049304 -0.049058 -0.048071 
-0.010018 -0.017881 -0.025166 -0.031525 -0.038135 -0.043897 -0.048911 -0.055189 -0.042535 -0.041023 -0.041324 -0.039941 -0.038643 -0.038369 -0.037916 
0.021434 0.013764 0.006938 0.000569 -0.006131 -0.012586 -0.017969 -0.024792 -0.026048 -0.025478 -0.026435 -0.025592 -0.023918 -0.024406 -0.024239 
0.053808 0.046559 0.040249 0.033649 0.027199 0.020364 0.014932 0.006993 -0.005562 -0.006817 -0.007989 -0.007965 -0.007256 -0.007759 -0.007894 
0.077951 0.073062 0.068236 0.063387 0.057287 0.051215 0.046054 0.038104 0.014398 0.012633 0.010639 0.010117 0.009468 0.009222 0.009354 
0.098095 0.095143 0.090803 0.0875 0.082689 0.078029 0.073395 0.06638 0.033995 0.031674 0.029433 0.027738 0.027623 0.02637 0.025801 
0.106781 0.10628 0.105241 0.103142 0.100769 0.097277 0.093978 0.088295 0.050181 0.047052 0.044782 0.042993 0.042215 0.040984 0.039635 
0.10007 0.103114 0.106002 0.106558 0.106622 0.105341 0.103834 0.100418 0.059605 0.056525 0.054011 0.052556 0.050817 0.04988 0.048997 
0.09078 0.095372 0.098903 0.100993 0.102573 0.103802 0.103901 0.102987 0.065546 0.061854 0.059973 0.057847 0.056675 0.055035 0.05381 
0.072654 0.078565 0.083837 0.087346 0.090513 0.093077 0.094992 0.096043 0.064797 0.061468 0.060089 0.05783 0.056583 0.055522 0.054224 
0.041786 0.050266 0.05765 0.063144 0.068653 0.072672 0.076292 0.079802 0.057058 0.055075 0.054058 0.051704 0.050215 0.049758 0.048847 
0.008783 0.018185 0.025591 0.031819 0.038619 0.044457 0.049495 0.055736 0.043509 0.042724 0.042428 0.040694 0.03953 0.039143 0.038158 
-0.023807 -0.015631 -0.008491 -0.002017 0.005024 0.011351 0.017324 0.024724 0.024874 0.025046 0.025426 0.024817 0.023805 0.024246 0.024014 
-0.052278 -0.046446 -0.040199 -0.034355 -0.027363 -0.021379 -0.015649 -0.007751 0.005574 0.006395 0.008013 0.007818 0.007223 0.007736 0.008049 
-0.077289 -0.072768 -0.067693 -0.062867 -0.057076 -0.05149 -0.046196 -0.038355 -0.015083 -0.01296 -0.010596 -0.009611 -0.009931 -0.009307 -0.008635 
-0.098552 -0.09519 -0.09114 -0.087429 -0.08292 -0.078217 -0.073383 -0.066746 -0.034319 -0.031912 -0.029736 -0.027988 -0.028116 -0.026711 -0.025305 
-0.105383 -0.105894 -0.104483 -0.103011 -0.100136 -0.096624 -0.093144 -0.087884 -0.049224 -0.046725 -0.044232 -0.042703 -0.042004 -0.040647 -0.039626 
-0.100957 -0.104397 -0.105946 -0.106796 -0.10635 -0.104894 -0.103294 -0.100273 -0.060522 -0.057113 -0.054414 -0.052713 -0.051138 -0.050177 -0.049709 
-0.092207 -0.096513 -0.099729 -0.102031 -0.10344 -0.104161 -0.104534 -0.103499 -0.065405 -0.062559 -0.060358 -0.058395 -0.056384 -0.055401 -0.054609 
-0.071386 -0.077866 -0.083817 -0.087022 -0.090729 -0.093302 -0.095172 -0.095618 -0.063683 -0.061253 -0.059982 -0.057597 -0.056068 -0.054682 -0.053887 
-0.039905 -0.048847 -0.056774 -0.061601 -0.067425 -0.072054 -0.075308 -0.079103 -0.055444 -0.053321 -0.052775 -0.050788 -0.049682 -0.048659 -0.04825 
-0.009888 -0.018948 -0.025819 -0.031986 -0.038519 -0.043877 -0.048881 -0.055161 -0.042777 -0.04149 -0.041021 -0.040024 -0.03839 -0.038397 -0.038207 
0.021359 0.013826 0.006493 0.000402 -0.006491 -0.012445 -0.018402 -0.025305 -0.026767 -0.025746 -0.026477 -0.025489 -0.024268 -0.024341 -0.024426 
0.053863 0.047242 0.039906 0.034122 0.027299 0.020643 0.01474 0.00665 -0.005392 -0.00632 -0.008352 -0.008062 -0.00798 -0.007927 -0.008015 
0.077922 0.072772 0.068078 0.063426 0.057246 0.051754 0.046292 0.03862 0.015988 0.013146 0.011245 0.010096 0.010026 0.009709 0.009427 
0.096826 0.093803 0.090257 0.086987 0.082075 0.077881 0.073054 0.067107 0.034652 0.031917 0.029525 0.028016 0.027978 0.027057 0.026281 
0.106457 0.105933 0.104539 0.10264 0.099713 0.096758 0.093065 0.087968 0.050399 0.047346 0.044764 0.043097 0.04232 0.040732 0.040125 
0.101044 0.10439 0.105946 0.106568 0.105763 0.104899 0.103224 0.099863 0.05979 0.056628 0.054586 0.052724 0.051353 0.049835 0.048762 
0.090092 0.095521 0.098725 0.101055 0.102307 0.103321 0.103492 0.102681 0.064445 0.061483 0.059525 0.057872 0.056432 0.055248 0.053593 
0.071349 0.077899 0.083542 0.086937 0.090336 0.092878 0.094307 0.095748 0.064518 0.061444 0.060107 0.058446 0.056423 0.055295 0.054533 
0.042192 0.050586 0.057773 0.062826 0.068483 0.072529 0.07587 0.079703 0.057066 0.054974 0.053951 0.052409 0.050587 0.049558 0.049224 
0.008986 0.01792 0.025788 0.031832 0.038947 0.044359 0.049692 0.055394 0.042521 0.041727 0.04128 0.040294 0.03945 0.038867 0.038307 
-0.023721 -0.015412 -0.007806 -0.001383 0.005558 0.011752 0.017683 0.024249 0.024083 0.024223 0.02514 0.024765 0.023757 0.02371 0.023772 
-0.05064 -0.04445 -0.038673 -0.032972 -0.026823 -0.020767 -0.014726 -0.00762 0.005049 0.006135 0.007506 0.00766 0.00698 0.006928 0.007883 
-0.076498 -0.071417 -0.066632 -0.061889 -0.055776 -0.050609 -0.044826 -0.037649 -0.014987 -0.012919 -0.011054 -0.010369 -0.010617 -0.009948 -0.008983 
-0.098941 -0.094925 -0.091334 -0.0868 -0.081364 -0.077196 -0.072543 -0.066217 -0.035049 -0.032206 -0.029832 -0.028489 -0.028793 -0.027089 -0.026289 
-0.10536 -0.105654 -0.104626 -0.102592 -0.099748 -0.096518 -0.093183 -0.088034 -0.050436 -0.048029 -0.045085 -0.04355 -0.042744 -0.04141 -0.040076 
-0.101516 -0.104608 -0.105933 -0.107242 -0.106772 -0.10523 -0.104037 -0.100132 -0.060544 -0.057915 -0.05459 -0.053384 -0.052022 -0.050764 -0.049817 
-0.092578 -0.096936 -0.099702 -0.102266 -0.103594 -0.104399 -0.104926 -0.103211 -0.066573 -0.06266 -0.060595 -0.059187 -0.057684 -0.056298 -0.055687 
-0.070525 -0.077419 -0.082613 -0.086894 -0.090352 -0.093133 -0.09505 -0.096523 -0.065641 -0.062325 -0.061107 -0.059049 -0.056903 -0.056299 -0.054799 
-0.038988 -0.047358 -0.055025 -0.061135 -0.066373 -0.070719 -0.075209 -0.079559 -0.056331 -0.054171 -0.053664 -0.051697 -0.049969 -0.049616 -0.048419 
-0.008832 -0.01715 -0.024315 -0.030398 -0.037031 -0.042468 -0.047781 -0.053929 -0.041809 -0.040706 -0.041298 -0.040252 -0.039098 -0.038809 -0.038469 
0.021195 0.013643 0.006953 0.001165 -0.006349 -0.012355 -0.01771 -0.025374 -0.026153 -0.025969 -0.027132 -0.026206 -0.025439 -0.025563 -0.025246 
0.052688 0.046185 0.039293 0.033473 0.026476 0.020642 0.014921 0.007183 -0.006625 -0.00724 -0.008964 -0.00883 -0.007801 -0.008856 -0.008667 
0.07777 0.073234 0.068084 0.062722 0.056855 0.051346 0.045523 0.038178 0.014217 0.011885 0.010099 0.009081 0.009436 0.008605 0.007962 
0.097365 0.09394 0.090726 0.086905 0.082572 0.077469 0.072842 0.066029 0.033457 0.031106 0.02826 0.027119 0.026819 0.025974 0.025018 
0.106558 0.105716 0.104579 0.103013 0.100339 0.096637 0.093466 0.088037 0.049265 0.046372 0.043883 0.042337 0.04171 0.04016 0.03912 
0.100244 0.103863 0.105692 0.106684 0.10607 0.105223 0.103412 0.100546 0.060725 0.056902 0.054457 0.052662 0.051513 0.049791 0.048245 
0.09057 0.095108 0.098502 0.100709 0.102556 0.103653 0.103831 0.103378 0.066534 0.062998 0.060591 0.058629 0.057394 0.055879 0.054493 
0.073122 0.078711 0.083411 0.086818 0.090721 0.093059 0.095032 0.09658 0.066021 0.062626 0.061355 0.058619 0.057516 0.055871 0.055329 
0.042056 0.050212 0.057259 0.06281 0.06852 0.072891 0.076245 0.080382 0.05761 0.055588 0.054422 0.052623 0.051088 0.049846 0.049771 
0.008934 0.017884 0.025543 0.031824 0.038905 0.044417 0.049223 0.055393 0.043269 0.042284 0.041969 0.041324 0.039661 0.039267 0.038965 
-0.023402 -0.014604 -0.007789 -0.001727 0.005693 0.011758 0.017736 0.024531 0.026278 0.025597 0.026631 0.025739 0.024977 0.024743 0.024397 
-0.051598 -0.045687 -0.039743 -0.033529 -0.027192 -0.020367 -0.014474 -0.006838 0.006601 0.008099 0.009566 0.009091 0.008877 0.008899 0.0093 
-0.076315 -0.072136 -0.066973 -0.062128 -0.056842 -0.050689 -0.045693 -0.037573 -0.014489 -0.012035 -0.009515 -0.009238 -0.009213 -0.008162 -0.007575 
-0.098486 -0.094595 -0.090336 -0.087228 -0.082191 -0.077754 -0.07311 -0.066648 -0.034761 -0.032364 -0.029157 -0.028393 -0.027611 -0.02601 -0.025758 
-0.104802 -0.105379 -0.104172 -0.102174 -0.099106 -0.096639 -0.092911 -0.088286 -0.050413 -0.047131 -0.044543 -0.042953 -0.042009 -0.040566 -0.039905 
-0.099784 -0.103168 -0.105142 -0.105696 -0.105328 -0.104771 -0.102912 -0.099855 -0.059817 -0.056649 -0.054721 -0.052548 -0.051637 -0.05022 -0.048971 
-0.09282 -0.096601 -0.099666 -0.101719 -0.103154 -0.103724 -0.103777 -0.102589 -0.065866 -0.062693 -0.060701 -0.058323 -0.057238 -0.055781 -0.054634 
-0.072313 -0.079029 -0.084204 -0.087524 -0.091383 -0.09362 -0.095477 -0.096008 -0.064992 -0.062125 -0.060353 -0.058113 -0.05661 -0.05548 -0.055028 
-0.040228 -0.048864 -0.056219 -0.062427 -0.068327 -0.072689 -0.076009 -0.079342 -0.05577 -0.053993 -0.053232 -0.051532 -0.049588 -0.04882 -0.048586 
-0.010516 -0.018555 -0.02567 -0.032287 -0.03888 -0.044159 -0.049227 -0.055017 -0.043803 -0.042242 -0.041937 -0.040412 -0.039527 -0.038923 -0.038492 
0.020697 0.013164 0.006127 -2.2e-05 -0.006776 -0.012686 -0.018812 -0.026057 -0.02732 -0.026791 -0.026906 -0.02587 -0.02544 -0.025378 -0.025106 
0.052932 0.046027 0.039248 0.032931 0.026371 0.020268 0.014279 0.005883 -0.005774 -0.007073 -0.008594 -0.008593 -0.008063 -0.008424 -0.008196 
0.077085 0.072139 0.067132 0.062289 0.056256 0.05116 0.045254 0.037549 0.014824 0.012572 0.010434 0.009639 0.009388 0.008729 0.008446 
0.09743 0.094222 0.090247 0.08682 0.081776 0.077417 0.07252 0.065717 0.033142 0.03074 0.028749 0.027283 0.0273 0.026103 0.025005 
0.107289 0.106703 0.105357 0.103307 0.100133 0.096853 0.09345 0.087283 0.049275 0.046467 0.043724 0.042247 0.041578 0.040467 0.039408 
0.100223 0.103833 0.106457 0.106885 0.106343 0.105015 0.103205 0.099756 0.060092 0.056645 0.05387 0.052001 0.050558 0.049102 0.04838 
0.090645 0.095748 0.09917 0.101382 0.102905 0.103298 0.103896 0.103206 0.065161 0.062051 0.06028 0.057532 0.056757 0.05483 0.054375 
0.073196 0.079587 0.08429 0.087843 0.091154 0.093653 0.095792 0.096674 0.065257 0.062355 0.060964 0.058583 0.05679 0.055814 0.055151 
0.041837 0.050546 0.0578 0.063449 0.069058 0.073382 0.076986 0.080581 0.057641 0.055361 0.054204 0.05276 0.050494 0.050099 0.049082 
0.009868 0.018198 0.025867 0.032262 0.039317 0.044574 0.050205 0.05616 0.043425 0.042491 0.042018 0.041178 0.039914 0.039257 0.038828 
-0.022516 -0.014943 -0.007461 -0.001255 0.006015 0.012189 0.018364 0.025016 0.026143 0.025775 0.026457 0.025573 0.024686 0.024334 0.024543 
-0.052174 -0.045959 -0.039469 -0.033479 -0.026722 -0.020648 -0.014691 -0.006999 0.006472 0.007415 0.00877 0.008547 0.008033 0.008362 0.00868 
-0.076356 -0.07161 -0.0666 -0.062149 -0.056065 -0.051115 -0.0455 -0.037441 -0.013097 -0.011167 -0.00949 -0.008759 -0.009059 -0.008158 -0.00771 
-0.098902 -0.094903 -0.091164 -0.087211 -0.082233 -0.07767 -0.072927 -0.065576 -0.032276 -0.030193 -0.027683 -0.027155 -0.026876 -0.025356 -0.024559 
-0.106472 -0.106417 -0.105743 -0.103151 -0.100507 -0.096719 -0.093482 -0.087269 -0.04975 -0.04616 -0.043789 -0.042205 -0.041312 -0.039575 -0.038361 
-0.099773 -0.102996 -0.105261 -0.106375 -0.105946 -0.104906 -0.103876 -0.100431 -0.060503 -0.056557 -0.054443 -0.05202 -0.051136 -0.049782 -0.048594 
-0.092397 -0.096237 -0.099167 -0.101623 -0.102931 -0.10392 -0.104229 -0.103665 -0.065921 -0.062921 -0.06053 -0.058408 -0.057036 -0.055926 -0.055117 
-0.072712 -0.07962 -0.084445 -0.087897 -0.091395 -0.093381 -0.095061 -0.096707 -0.065915 -0.062589 -0.061352 -0.05876 -0.056845 -0.055924 -0.055283 
-0.038976 -0.048678 -0.056358 -0.061863 -0.067578 -0.071871 -0.076179 -0.080369 -0.056994 -0.054475 -0.054024 -0.052207 -0.050391 -0.049711 -0.049091 
-0.009745 -0.018205 -0.025322 -0.031336 -0.038161 -0.043864 -0.049379 -0.055074 -0.042795 -0.042399 -0.041769 -0.040861 -0.039458 -0.039277 -0.038968 
0.019622 0.012162 0.005748 -0.000562 -0.007166 -0.01291 -0.018672 -0.024796 -0.025797 -0.026073 -0.02659 -0.025897 -0.024664 -0.025005 -0.025085 
0.052381 0.045164 0.038249 0.032235 0.025908 0.019777 0.013451 0.006537 -0.005442 -0.006657 -0.008182 -0.008467 -0.00746 -0.007876 -0.008227 
0.076413 0.0715 0.066345 0.061997 0.055963 0.050154 0.044701 0.037535 0.014845 0.012312 0.010619 0.009871 0.010096 0.009463 0.008664 
0.096565 0.093464 0.089458 0.086196 0.081064 0.076404 0.072012 0.065605 0.033124 0.030708 0.028454 0.027381 0.027198 0.02627 0.025344 
0.107223 0.106878 0.104793 0.102585 0.099219 0.096383 0.092785 0.086883 0.049581 0.046441 0.043782 0.042292 0.04168 0.040216 0.039409 
0.099986 0.103342 0.105834 0.106143 0.105741 0.104953 0.103471 0.099439 0.061048 0.057194 0.054412 0.052638 0.051119 0.04968 0.048586 
0.090316 0.094475 0.098263 0.100621 0.102454 0.10297 0.10363 0.103058 0.065413 0.062668 0.060269 0.058376 0.056804 0.055849 0.054843 
0.073871 0.079775 0.083907 0.087522 0.090684 0.093003 0.095145 0.096147 0.064358 0.061963 0.060376 0.0589 0.057351 0.056141 0.055483 
0.042493 0.0512 0.05799 0.063596 0.069061 0.07348 0.077036 0.0796 0.057059 0.054945 0.054111 0.052313 0.050259 0.049875 0.049083 
0.009266 0.018791 0.026201 0.032958 0.039844 0.04533 0.050227 0.055782 0.043228 0.042028 0.042231 0.040603 0.038967 0.039179 0.038863 
-0.022757 -0.013974 -0.006977 -0.0004 0.006608 0.012891 0.018587 0.025798 0.026048 0.025192 0.026173 0.02586 0.024828 0.024311 0.024769 
-0.051604 -0.045362 -0.039125 -0.033213 -0.026255 -0.020188 -0.014125 -0.006189 0.005997 0.006872 0.008325 0.008749 0.007957 0.008151 0.008429 
-0.075905 -0.071105 -0.066379 -0.061466 -0.055716 -0.051208 -0.044792 -0.037148 -0.015458 -0.012614 -0.010721 -0.009515 -0.009957 -0.008486 -0.008205 
-0.097809 -0.093908 -0.089594 -0.085972 -0.081362 -0.077472 -0.072108 -0.065718 -0.034237 -0.031422 -0.02923 -0.027685 -0.027827 -0.026378 -0.025401 
-0.106053 -0.105801 -0.104207 -0.102613 -0.099711 -0.096288 -0.09287 -0.087663 -0.049885 -0.046776 -0.044166 -0.04264 -0.041687 -0.04096 -0.039854 
-0.100821 -0.103966 -0.105909 -0.106509 -0.10643 -0.105065 -0.103314 -0.099969 -0.061927 -0.05807 -0.05543 -0.053271 -0.051707 -0.050383 -0.049723 
-0.092101 -0.096455 -0.099143 -0.101468 -0.102848 -0.103691 -0.103951 -0.103249 -0.066691 -0.06377 -0.061362 -0.059661 -0.058371 -0.056422 -0.055724 
-0.07214 -0.078801 -0.083573 -0.087276 -0.090531 -0.092804 -0.094958 -0.096638 -0.064015 -0.061961 -0.060213 -0.058922 -0.057177 -0.056425 -0.055569 
-0.040129 -0.049221 -0.056767 -0.062375 -0.068093 -0.071741 -0.076043 -0.07895 -0.056358 -0.053735 -0.053159 -0.051454 -0.050077 -0.049389 -0.048829 
-0.009883 -0.017937 -0.025415 -0.032151 -0.038642 -0.044033 -0.04961 -0.0545 -0.043502 -0.041722 -0.041562 -0.040645 -0.03959 -0.038871 -0.038427 
0.020465 0.01275 0.006033 0.000178 -0.006689 -0.013203 -0.018589 -0.025749 -0.026287 -0.026277 -0.026981 -0.026398 -0.024642 -0.025104 -0.025147 
0.052614 0.044972 0.03871 0.032906 0.026027 0.019815 0.013821 0.006252 -0.006441 -0.007297 -0.009087 -0.008743 -0.007641 -0.008456 -0.009163 
0.077193 0.072359 0.067963 0.062351 0.056499 0.051042 0.045021 0.037466 0.014104 0.01212 0.010578 0.009615 0.009736 0.008794 0.0083 
0.097629 0.093823 0.090793 0.087035 0.082439 0.077598 0.072819 0.066114 0.033257 0.030538 0.028552 0.027232 0.02691 0.025996 0.025364 
0.107522 0.106783 0.104838 0.103147 0.100299 0.09678 0.093368 0.087744 0.050089 0.046797 0.043969 0.04221 0.041361 0.040187 0.039029 
0.099588 0.103786 0.105597 0.106431 0.105989 0.105112 0.103455 0.099691 0.060913 0.057356 0.05468 0.052243 0.051172 0.049764 0.048762 
0.090142 0.094622 0.098424 0.100541 0.102107 0.103536 0.103518 0.103398 0.065498 0.062609 0.060492 0.05832 0.056797 0.055591 0.054755 
0.073813 0.079803 0.084009 0.087336 0.090528 0.093146 0.094858 0.096484 0.065385 0.062612 0.061191 0.059265 0.057588 0.055921 0.055052 
0.042233 0.050859 0.057974 0.063668 0.068739 0.073263 0.076735 0.080014 0.057657 0.055488 0.05457 0.052753 0.051491 0.050196 0.049694 
0.010277 0.018626 0.026421 0.032563 0.039119 0.044943 0.050165 0.055956 0.043962 0.042726 0.042716 0.041204 0.040032 0.039583 0.039489 
-0.021951 -0.013539 -0.00706 -0.000656 0.006498 0.012148 0.018663 0.02513 0.026159 0.025874 0.026688 0.025959 0.024943 0.024784 0.024886 
-0.052299 -0.045245 -0.03927 -0.033047 -0.026302 -0.020294 -0.014195 -0.006912 0.005392 0.006828 0.008221 0.008143 0.007603 0.008189 0.008512 
-0.076309 -0.07117 -0.066369 -0.062036 -0.056271 -0.05047 -0.045049 -0.037841 -0.014211 -0.012265 -0.010298 -0.009892 -0.009926 -0.00864 -0.00831 
-0.099009 -0.094555 -0.090631 -0.087045 -0.082164 -0.077343 -0.072171 -0.065973 -0.03321 -0.030766 -0.029222 -0.027705 -0.027489 -0.026002 -0.025285 
-0.107109 -0.106589 -0.105055 -0.103355 -0.100337 -0.096753 -0.093165 -0.087177 -0.050461 -0.046862 -0.044786 -0.042615 -0.041923 -0.040601 -0.039291 
-0.099358 -0.102873 -0.104822 -0.106119 -0.106021 -0.104825 -0.103863 -0.100548 -0.06146 -0.058454 -0.055249 -0.053211 -0.051524 -0.050326 -0.049098 
-0.091137 -0.094993 -0.09821 -0.10056 -0.102311 -0.103156 -0.103781 -0.103929 -0.06604 -0.063585 -0.061205 -0.059375 -0.057961 -0.056507 -0.055707 
-0.072473 -0.078644 -0.083679 -0.087291 -0.090392 -0.092757 -0.09452 -0.096037 -0.064493 -0.061567 -0.060274 -0.058347 -0.057599 -0.056231 -0.055696 
-0.040088 -0.049633 -0.056911 -0.062276 -0.06769 -0.072013 -0.075779 -0.079203 -0.056289 -0.054065 -0.053281 -0.051488 -0.04994 -0.049443 -0.048267 
-0.010279 -0.019014 -0.026003 -0.032096 -0.038695 -0.044644 -0.049557 -0.054973 -0.042804 -0.041706 -0.04188 -0.040823 -0.039348 -0.039291 -0.038211 
0.019673 0.011778 0.005267 -0.000833 -0.007319 -0.013853 -0.019039 -0.025301 -0.025325 -0.024967 -0.026043 -0.025488 -0.024641 -0.024459 -0.024733 
0.052132 0.04417 0.037558 0.032009 0.025286 0.019315 0.013419 0.006383 -0.005307 -0.006291 -0.00763 -0.007713 -0.006751 -0.007175 -0.007757 
0.077378 0.07159 0.066115 0.061631 0.055657 0.050251 0.044546 0.036899 0.014678 0.01275 0.01082 0.01044 0.010353 0.009493 0.008878 
0.097141 0.093439 0.089495 0.086167 0.081749 0.076727 0.072221 0.065276 0.034088 0.031541 0.028952 0.028357 0.027519 0.026559 0.02564 
0.106209 0.105856 0.104218 0.102494 0.099667 0.096168 0.092837 0.087823 0.050612 0.047013 0.044844 0.042993 0.042374 0.040975 0.039954 
0.1001 0.103525 0.105262 0.105888 0.105692 0.104661 0.102933 0.099747 0.060668 0.056838 0.054947 0.052619 0.051571 0.050009 0.049088 
0.090806 0.095076 0.098351 0.100616 0.102568 0.10331 0.103396 0.102771 0.065518 0.062064 0.060312 0.058193 0.057092 0.055597 0.054833 
0.0735 0.080081 0.084346 0.087951 0.091147 0.092987 0.094687 0.096489 0.064966 0.062072 0.060697 0.058653 0.057382 0.056055 0.055147 
0.042404 0.05123 0.058266 0.063952 0.069085 0.07329 0.076552 0.079878 0.057594 0.055479 0.054243 0.052556 0.050818 0.049644 0.049228 
0.009115 0.017257 0.025488 0.032563 0.039116 0.045278 0.050051 0.056019 0.043534 0.042494 0.042328 0.040997 0.039663 0.039309 0.038968 
-0.022743 -0.0148 -0.007457 -0.00068 0.006272 0.011912 0.018154 0.025412 0.024542 0.025194 0.026027 0.02563 0.024598 0.025423 0.024651 
-0.05169 -0.04528 -0.038455 -0.033116 -0.026118 -0.020919 -0.014432 -0.007394 0.0054 0.006895 0.008215 0.008426 0.007673 0.008365 0.008345 
-0.076968 -0.072219 -0.066751 -0.0622 -0.056353 -0.050626 -0.045196 -0.037879 -0.014607 -0.01277 -0.010307 -0.009838 -0.009896 -0.009233 -0.008505 
-0.097997 -0.093772 -0.090471 -0.086794 -0.082772 -0.077142 -0.072628 -0.066293 -0.034736 -0.031884 -0.029529 -0.027964 -0.027661 -0.026252 -0.025411 
-0.10546 -0.105018 -0.103693 -0.102459 -0.099705 -0.096162 -0.092957 -0.087499 -0.049265 -0.046085 -0.044196 -0.042272 -0.041568 -0.040216 -0.039477 
-0.100935 -0.103993 -0.105583 -0.106252 -0.105354 -0.104602 -0.10315 -0.099004 -0.059381 -0.056468 -0.053906 -0.051935 -0.051035 -0.049693 -0.048822 
-0.092264 -0.09605 -0.099684 -0.101876 -0.103475 -0.103927 -0.103935 -0.102553 -0.06518 -0.062534 -0.06031 -0.057857 -0.056907 -0.055157 -0.05428 
-0.072374 -0.078758 -0.083673 -0.087943 -0.091265 -0.093455 -0.095397 -0.096342 -0.063915 -0.061616 -0.059971 -0.058085 -0.056312 -0.054909 -0.05454 
-0.040327 -0.049211 -0.056684 -0.062336 -0.067901 -0.072166 -0.076142 -0.080289 -0.056644 -0.054173 -0.053112 -0.051689 -0.049928 -0.048956 -0.04858 
-0.010397 -0.01828 -0.025724 -0.032113 -0.0391 -0.044353 -0.049405 -0.055589 -0.04421 -0.042565 -0.042669 -0.041119 -0.039837 -0.039348 -0.038954 
0.020585 0.012781 0.005851 -0.000204 -0.006762 -0.012773 -0.018177 -0.025381 -0.02635 -0.025902 -0.027208 -0.026762 -0.025254 -0.025276 -0.025409 
0.05286 0.045617 0.038659 0.03291 0.026169 0.019922 0.014293 0.006342 -0.005702 -0.006192 -0.008086 -0.008451 -0.00747 -0.008181 -0.008536 
0.077083 0.071932 0.066996 0.062153 0.055946 0.050696 0.045076 0.037658 0.014643 0.012754 0.010785 0.010292 0.00982 0.008616 0.008249 
0.097746 0.09399 0.090169 0.086623 0.081675 0.076829 0.071944 0.065837 0.033347 0.030647 0.028879 0.027477 0.027155 0.025991 0.025011 
0.107348 0.106882 0.105085 0.103071 0.100086 0.096623 0.093185 0.087596 0.050035 0.046513 0.044164 0.042275 0.041507 0.040603 0.039614 
0.100377 0.104046 0.105988 0.106572 0.106382 0.105634 0.103914 0.100252 0.060635 0.056953 0.054392 0.052596 0.050722 0.049678 0.048411 
0.090828 0.095478 0.09862 0.101133 0.102771 0.103481 0.103951 0.103179 0.065879 0.062338 0.060324 0.058324 0.057292 0.055709 0.053824 
0.07338 0.079215 0.084127 0.087687 0.090799 0.092907 0.095278 0.09657 0.065338 0.062172 0.060524 0.059208 0.057787 0.05626 0.055358 
0.042501 0.050701 0.058425 0.063749 0.068846 0.07308 0.076409 0.080633 0.056958 0.05476 0.054179 0.052595 0.050888 0.050117 0.049789 
0.010001 0.018549 0.026384 0.033079 0.039343 0.044979 0.049744 0.055955 0.04351 0.042281 0.042444 0.040592 0.039826 0.039419 0.038893 
-0.023035 -0.014684 -0.007382 -0.000922 0.006168 0.012344 0.018742 0.025538 0.025948 0.026043 0.026239 0.025762 0.024821 0.025009 0.024875 
-0.052645 -0.045624 -0.039463 -0.033767 -0.026811 -0.020598 -0.014125 -0.006333 0.006563 0.007187 0.008692 0.008836 0.008191 0.009024 0.009023 
-0.077046 -0.072373 -0.067548 -0.062393 -0.05663 -0.050896 -0.045336 -0.037462 -0.012828 -0.011939 -0.009355 -0.00881 -0.008901 -0.008495 -0.007816 
-0.099657 -0.095806 -0.091877 -0.087898 -0.082793 -0.078129 -0.0731 -0.065983 -0.033121 -0.030485 -0.028145 -0.02723 -0.026963 -0.026154 -0.024828 
-0.107305 -0.106277 -0.105703 -0.103982 -0.10093 -0.097577 -0.093896 -0.088028 -0.049548 -0.045656 -0.043549 -0.042196 -0.041333 -0.039767 -0.038673 
-0.100872 -0.104178 -0.106408 -0.107095 -0.106927 -0.105766 -0.104218 -0.100742 -0.059398 -0.055807 -0.05367 -0.051654 -0.050616 -0.049389 -0.048041 
-0.093233 -0.097552 -0.100636 -0.102606 -0.103737 -0.105139 -0.105064 -0.103843 -0.065315 -0.062027 -0.059874 -0.058162 -0.056685 -0.055303 -0.054027 
-0.072886 -0.079121 -0.084799 -0.088368 -0.091586 -0.09417 -0.096069 -0.096871 -0.065235 -0.06197 -0.060272 -0.058108 -0.05641 -0.054955 -0.054138 
-0.038944 -0.048246 -0.055989 -0.062019 -0.06786 -0.072184 -0.076179 -0.080075 -0.056817 -0.054581 -0.053474 -0.051283 -0.049558 -0.048795 -0.047965 
-0.009699 -0.017553 -0.024734 -0.031137 -0.037703 -0.043907 -0.04894 -0.055485 -0.043908 -0.04268 -0.042463 -0.041362 -0.039517 -0.039198 -0.038868 
0.02053 0.013437 0.006644 0.000587 -0.006342 -0.012182 -0.01794 -0.025799 -0.027223 -0.026831 -0.02771 -0.026711 -0.025655 -0.025228 -0.025408 
0.053754 0.045961 0.039678 0.033416 0.026375 0.02099 0.014621 0.005898 -0.006586 -0.007878 -0.009239 -0.008947 -0.008625 -0.008551 -0.0086 
0.077572 0.072546 0.068046 0.063151 0.057156 0.051818 0.045618 0.037606 0.013582 0.011763 0.009432 0.008932 0.009035 0.007823 0.007478 
0.097442 0.094403 0.090854 0.087551 0.082749 0.077716 0.07305 0.066485 0.033483 0.031141 0.028224 0.027013 0.026749 0.025084 0.024463 
0.106942 0.106169 0.104888 0.103062 0.100541 0.096705 0.093624 0.088304 0.050462 0.047083 0.044679 0.042363 0.041575 0.039761 0.039586 
0.099539 0.102767 0.105142 0.105778 0.105974 0.105179 0.103252 0.100474 0.060061 0.056579 0.054336 0.052332 0.050851 0.048928 0.048657 
0.090451 0.094926 0.097984 0.10046 0.101813 0.103063 0.103138 0.102651 0.064941 0.061329 0.059942 0.057612 0.056028 0.055172 0.054087 
0.073458 0.079465 0.084061 0.08756 0.090565 0.092686 0.094808 0.095761 0.063758 0.061254 0.060442 0.057741 0.056558 0.055788 0.054571 
0.042656 0.051091 0.05859 0.063792 0.069194 0.073143 0.076654 0.079809 0.056143 0.054474 0.053186 0.05174 0.050269 0.049007 0.048538 
0.009913 0.018606 0.026523 0.032934 0.03964 0.04518 0.049956 0.055725 0.043359 0.041712 0.041781 0.040467 0.038762 0.03833 0.038284 
-0.022786 -0.014603 -0.006722 -0.000759 0.006378 0.012754 0.018375 0.025814 0.024853 0.024862 0.026168 0.025002 0.02403 0.024484 0.024163 
-0.050878 -0.044685 -0.038175 -0.032762 -0.026231 -0.019758 -0.013994 -0.00664 0.006269 0.007059 0.007861 0.007875 0.007596 0.008166 0.007954 
-0.075701 -0.071419 -0.066652 -0.0618 -0.056078 -0.050147 -0.044765 -0.037324 -0.012986 -0.011676 -0.009923 -0.009566 -0.009382 -0.00899 -0.008797 
-0.098952 -0.095379 -0.091261 -0.087452 -0.082537 -0.077498 -0.072733 -0.065376 -0.034073 -0.031262 -0.02856 -0.027641 -0.02716 -0.026054 -0.025674 
-0.105732 -0.105918 -0.104718 -0.102647 -0.099977 -0.09694 -0.093176 -0.087713 -0.049451 -0.046353 -0.04401 -0.042143 -0.0416 -0.039979 -0.039249 
-0.100493 -0.104064 -0.106024 -0.106613 -0.106255 -0.10547 -0.10361 -0.099799 -0.059973 -0.056571 -0.053969 -0.051624 -0.050651 -0.049641 -0.048736 
-0.093185 -0.096917 -0.100238 -0.102358 -0.103863 -0.104565 -0.104541 -0.103389 -0.065999 -0.062698 -0.060605 -0.057796 -0.056866 -0.055645 -0.054988 
-0.072623 -0.078895 -0.084327 -0.087439 -0.091298 -0.093476 -0.095255 -0.097156 -0.063462 -0.061196 -0.059997 -0.057633 -0.056524 -0.055267 -0.054965 
-0.04072 -0.049749 -0.057473 -0.0626 -0.068304 -0.072337 -0.076594 -0.079678 -0.055961 -0.053754 -0.052624 -0.051037 -0.049109 -0.048599 -0.048187 
-0.010195 -0.018448 -0.026165 -0.032249 -0.039201 -0.044622 -0.049761 -0.055445 -0.043268 -0.041729 -0.041475 -0.040172 -0.038913 -0.038481 -0.037793 
0.020424 0.012781 0.005916 -0.000234 -0.007366 -0.013144 -0.018113 -0.025634 -0.02482 -0.024471 -0.025261 -0.024911 -0.024327 -0.024099 -0.023839 
0.051477 0.044583 0.037817 0.0318 0.025469 0.019463 0.013608 0.006609 -0.005907 -0.006389 -0.007518 -0.007656 -0.006827 -0.007214 -0.007325 
0.077507 0.072788 0.067138 0.062317 0.05617 0.050213 0.044285 0.036751 0.014363 0.012258 0.010169 0.009984 0.010286 0.009434 0.00893 
0.097786 0.09487 0.090927 0.087245 0.082156 0.077061 0.072115 0.06535 0.034541 0.032187 0.028945 0.028036 0.027515 0.026466 0.025567 
0.106254 0.10625 0.104942 0.102687 0.100245 0.09676 0.092857 0.08799 0.049869 0.047226 0.044391 0.043065 0.04209 0.040597 0.039965 
0.100506 0.103905 0.106157 0.106445 0.106409 0.105398 0.103389 0.100127 0.060865 0.056728 0.05435 0.05262 0.051599 0.049855 0.048899 
0.090525 0.095195 0.098462 0.100992 0.102717 0.103406 0.103723 0.103209 0.065565 0.062609 0.059939 0.058081 0.056691 0.055867 0.054749 
