0.035431 0.027722 0.022497 0.017557 0.012398 0.007296 0.003045 -0.004155 -0.011629 -0.011435 -0.012304 -0.012636 -0.011781 -0.012254 -0.012345 
0.058446 0.05158 0.046772 0.042333 0.036665 0.032129 0.027473 0.020516 0.004003 0.003666 0.001745 0.001825 0.001727 0.000857 0.000468 
0.071463 0.067945 0.065 0.061758 0.057349 0.053765 0.049342 0.043359 0.019247 0.018475 0.015761 0.015008 0.014895 0.013622 0.012588 
0.081862 0.079859 0.078399 0.076254 0.07328 0.070424 0.067037 0.062297 0.033248 0.031412 0.029096 0.027591 0.026987 0.025691 0.025325 
0.082477 0.082764 0.083394 0.083066 0.081421 0.079859 0.078078 0.075212 0.043692 0.040845 0.038784 0.037604 0.036063 0.035162 0.034106 
0.072122 0.075533 0.078047 0.079684 0.080514 0.081062 0.08079 0.079627 0.048814 0.046278 0.044274 0.0428 0.041446 0.040544 0.039383 
0.060225 0.06508 0.067923 0.070928 0.073446 0.074972 0.076218 0.076516 0.050087 0.04786 0.045942 0.044616 0.043676 0.042238 0.04226 
0.040156 0.046796 0.05143 0.055447 0.059142 0.061932 0.064365 0.066704 0.04644 0.044447 0.042738 0.042137 0.040478 0.040155 0.039227 
0.012618 0.020948 0.027085 0.032295 0.037499 0.042138 0.045513 0.049625 0.037028 0.035765 0.035297 0.034431 0.033085 0.033321 0.032334 
-0.012022 -0.004175 0.001593 0.007085 0.012766 0.017875 0.02244 0.027669 0.025331 0.024523 0.024878 0.024125 0.023424 0.023002 0.023457 
-0.035834 -0.028379 -0.022737 -0.018222 -0.012619 -0.007494 -0.002618 0.003604 0.011609 0.011454 0.012208 0.012449 0.01121 0.011969 0.0123 
-0.057289 -0.050958 -0.046355 -0.042157 -0.036785 -0.031884 -0.027568 -0.020412 -0.004503 -0.00357 -0.001753 -0.001374 -0.001509 -0.000697 -0.000102 
-0.072249 -0.068595 -0.065551 -0.062147 -0.057668 -0.053618 -0.049475 -0.043002 -0.019457 -0.018403 -0.01631 -0.015705 -0.014944 -0.014592 -0.013304 
-0.082078 -0.079861 -0.078142 -0.076477 -0.07339 -0.070315 -0.066873 -0.06268 -0.032439 -0.031362 -0.029207 -0.027819 -0.027166 -0.025808 -0.02488 
-0.081964 -0.08224 -0.082758 -0.082614 -0.081404 -0.079889 -0.078349 -0.074696 -0.043017 -0.040711 -0.038229 -0.03662 -0.035207 -0.03426 -0.033523 
-0.072921 -0.076466 -0.078777 -0.080396 -0.080782 -0.081472 -0.081149 -0.078838 -0.04903 -0.046106 -0.043837 -0.04215 -0.041179 -0.040303 -0.039511 
-0.059953 -0.0648 -0.068252 -0.071086 -0.072911 -0.075348 -0.076069 -0.076752 -0.049956 -0.04789 -0.045488 -0.044181 -0.043214 -0.04198 -0.041287 
-0.038067 -0.044935 -0.050103 -0.054344 -0.058109 -0.061476 -0.06418 -0.066257 -0.045834 -0.044005 -0.04232 -0.041599 -0.039479 -0.039141 -0.038678 
-0.011753 -0.01991 -0.026005 -0.031707 -0.036533 -0.040988 -0.044768 -0.049487 -0.037543 -0.035621 -0.035614 -0.034878 -0.03311 -0.033098 -0.032718 
0.01046 0.003137 -0.002501 -0.00741 -0.012659 -0.017761 -0.021891 -0.028311 -0.025602 -0.025153 -0.025338 -0.02507 -0.024186 -0.024299 -0.023886 
0.034797 0.027106 0.021576 0.017569 0.011604 0.006817 0.002276 -0.00329 -0.010754 -0.011334 -0.011659 -0.012252 -0.011771 -0.011997 -0.012247 
0.058047 0.050943 0.04619 0.042124 0.036633 0.031889 0.027173 0.021224 0.004855 0.004096 0.002731 0.001924 0.002329 0.001935 0.000944 
0.072092 0.0676 0.064901 0.061931 0.057523 0.053482 0.049074 0.043227 0.020049 0.018612 0.016733 0.015813 0.015794 0.014783 0.01371 
0.08195 0.079561 0.077799 0.076331 0.072535 0.07027 0.06698 0.061888 0.033378 0.031787 0.029347 0.028093 0.027294 0.026362 0.025418 
0.08243 0.083254 0.083246 0.083134 0.081267 0.080357 0.078138 0.074356 0.042974 0.041042 0.038393 0.03698 0.036086 0.035091 0.034192 
0.07188 0.075594 0.078214 0.079963 0.080772 0.080901 0.080449 0.078882 0.048521 0.04602 0.043938 0.042597 0.041393 0.040171 0.039333 
0.060113 0.064625 0.067851 0.070944 0.072956 0.074638 0.075983 0.075955 0.050123 0.047526 0.045799 0.044629 0.043089 0.042523 0.041739 
0.039678 0.046606 0.051305 0.055271 0.058474 0.062006 0.064193 0.066442 0.046397 0.044076 0.042936 0.041697 0.040324 0.040148 0.039401 
0.011412 0.020395 0.026556 0.031552 0.036729 0.041314 0.045422 0.05001 0.037127 0.035761 0.035336 0.034442 0.032914 0.032426 0.032175 
-0.012239 -0.004102 0.001245 0.006131 0.012049 0.016889 0.021981 0.027721 0.024899 0.024248 0.024329 0.024236 0.023154 0.022493 0.022814 
-0.035644 -0.027978 -0.022897 -0.018574 -0.012661 -0.008092 -0.003401 0.003089 0.010772 0.011199 0.011841 0.011905 0.011613 0.011374 0.011902 
-0.057199 -0.050674 -0.046271 -0.042035 -0.036551 -0.032362 -0.027386 -0.020933 -0.004664 -0.003123 -0.002231 -0.001687 -0.00187 -0.00153 -0.000637 
-0.071704 -0.067372 -0.06421 -0.061265 -0.057239 -0.053207 -0.048698 -0.043327 -0.019605 -0.01825 -0.016466 -0.015519 -0.015487 -0.01464 -0.013717 
-0.081982 -0.079753 -0.077164 -0.075722 -0.072665 -0.069763 -0.066409 -0.061977 -0.033102 -0.031271 -0.02856 -0.027911 -0.027377 -0.025861 -0.025549 
-0.082323 -0.083507 -0.08282 -0.082828 -0.081018 -0.079667 -0.078116 -0.074037 -0.043382 -0.040673 -0.03863 -0.037209 -0.036028 -0.034646 -0.034166 
-0.073595 -0.076606 -0.07854 -0.080777 -0.081128 -0.081306 -0.081346 -0.079324 -0.049037 -0.046833 -0.044982 -0.043105 -0.041643 -0.040878 -0.039536 
-0.060886 -0.065012 -0.068807 -0.071662 -0.073517 -0.075521 -0.076503 -0.076906 -0.050401 -0.048518 -0.046305 -0.04507 -0.043769 -0.042688 -0.041676 
-0.037506 -0.04528 -0.050519 -0.05431 -0.058023 -0.061389 -0.064259 -0.066161 -0.046267 -0.044279 -0.042986 -0.041702 -0.040289 -0.039185 -0.038844 
-0.010885 -0.019529 -0.025366 -0.031049 -0.036364 -0.040847 -0.044723 -0.049216 -0.036948 -0.035703 -0.035428 -0.034166 -0.033039 -0.032832 -0.032357 
0.009849 0.002815 -0.002641 -0.007424 -0.012707 -0.01738 -0.021871 -0.027527 -0.025598 -0.024673 -0.025138 -0.024552 -0.023871 -0.024122 -0.023934 
0.035738 0.027695 0.022253 0.018036 0.012241 0.007658 0.002429 -0.003409 -0.011511 -0.01089 -0.012079 -0.012088 -0.01177 -0.012087 -0.012396 
0.059292 0.052203 0.047259 0.042714 0.036906 0.032074 0.027709 0.020826 0.00482 0.004401 0.002573 0.002281 0.002002 0.00126 0.000783 
0.0713 0.06749 0.064561 0.061417 0.057423 0.053615 0.049412 0.043377 0.019708 0.018601 0.016292 0.015662 0.01547 0.014243 0.013823 
0.081939 0.079768 0.078017 0.075947 0.072983 0.070256 0.066351 0.061598 0.033202 0.030887 0.029101 0.02767 0.027157 0.026196 0.02552 
0.082411 0.083152 0.08298 0.082947 0.081326 0.079746 0.077972 0.074278 0.043591 0.04082 0.039031 0.037301 0.036083 0.03534 0.033769 
0.071481 0.074612 0.077135 0.079474 0.080448 0.080737 0.08055 0.079507 0.048905 0.046761 0.044259 0.042828 0.041814 0.040875 0.039578 
0.059984 0.064216 0.06744 0.070536 0.072859 0.074308 0.075467 0.076467 0.050358 0.047818 0.046005 0.044546 0.043337 0.042999 0.042212 
0.039247 0.046586 0.051035 0.055185 0.058594 0.06144 0.064333 0.066494 0.046768 0.044303 0.043265 0.04208 0.040617 0.04062 0.039427 
0.01222 0.020854 0.027168 0.032021 0.037065 0.04138 0.045546 0.04949 0.037661 0.036019 0.035562 0.03482 0.033594 0.033176 0.032789 
-0.011971 -0.004034 0.001433 0.006858 0.012392 0.017314 0.022047 0.027506 0.025271 0.024453 0.024944 0.024309 0.023237 0.023048 0.023569 
-0.036606 -0.028448 -0.023481 -0.018154 -0.012773 -0.007481 -0.002746 0.003626 0.011187 0.011217 0.012005 0.0118 0.011466 0.011743 0.012119 
-0.057355 -0.050665 -0.046002 -0.042095 -0.037014 -0.03219 -0.02752 -0.021044 -0.004418 -0.004248 -0.002684 -0.002082 -0.001686 -0.00146 -0.001026 
-0.071586 -0.067578 -0.064819 -0.061605 -0.057303 -0.053393 -0.04933 -0.043872 -0.02008 -0.0194 -0.017095 -0.01569 -0.01544 -0.014901 -0.014265 
-0.081507 -0.079436 -0.077684 -0.075889 -0.07265 -0.069655 -0.066459 -0.061947 -0.033292 -0.031405 -0.029191 -0.027713 -0.027555 -0.026221 -0.025188 
-0.081245 -0.082214 -0.082197 -0.082359 -0.080999 -0.079724 -0.077638 -0.074344 -0.043245 -0.040775 -0.038331 -0.036949 -0.036232 -0.035052 -0.033906 
-0.072809 -0.076204 -0.078279 -0.08001 -0.080484 -0.080853 -0.080633 -0.079694 -0.049123 -0.046546 -0.044254 -0.042902 -0.041537 -0.040539 -0.039854 
-0.060591 -0.065132 -0.067916 -0.071335 -0.072998 -0.074687 -0.075777 -0.076402 -0.05032 -0.047508 -0.045854 -0.045006 -0.043191 -0.041947 -0.041413 
-0.037111 -0.044924 -0.050181 -0.054305 -0.058096 -0.061441 -0.063681 -0.065516 -0.046374 -0.043777 -0.042742 -0.041528 -0.039793 -0.039378 -0.038656 
-0.010448 -0.019313 -0.025773 -0.030986 -0.036262 -0.040575 -0.044562 -0.04891 -0.03748 -0.035858 -0.035176 -0.034223 -0.033067 -0.032954 -0.032502 
0.010473 0.003392 -0.001469 -0.007064 -0.012155 -0.01668 -0.021803 -0.027731 -0.025426 -0.024889 -0.024649 -0.024609 -0.023668 -0.023511 -0.023748 
0.036012 0.028305 0.022898 0.018313 0.012467 0.007743 0.00272 -0.003807 -0.011043 -0.011268 -0.012221 -0.011762 -0.011101 -0.011932 -0.011837 
0.058507 0.052082 0.046946 0.042722 0.036845 0.032248 0.02776 0.020854 0.004568 0.003915 0.002317 0.002052 0.001897 0.001317 0.001089 
0.071189 0.067161 0.06449 0.061727 0.057763 0.053708 0.049328 0.043719 0.019722 0.018615 0.016752 0.015541 0.014972 0.01454 0.013126 
0.081974 0.078756 0.076962 0.075838 0.072873 0.069875 0.066589 0.06227 0.033166 0.031297 0.029102 0.027856 0.027468 0.025609 0.025267 
0.081814 0.082642 0.08255 0.082496 0.080754 0.079461 0.077879 0.074438 0.043135 0.040659 0.038505 0.036601 0.036028 0.034474 0.034031 
0.071603 0.07558 0.078038 0.07997 0.080535 0.081056 0.080368 0.078812 0.048661 0.046393 0.044092 0.042586 0.041258 0.040553 0.038754 
0.060296 0.064774 0.067965 0.071223 0.07314 0.075059 0.075969 0.076222 0.049976 0.048201 0.046302 0.045074 0.043313 0.04241 0.041625 
0.039164 0.046229 0.050977 0.055137 0.058621 0.061881 0.064468 0.066689 0.04622 0.044496 0.043452 0.041903 0.040251 0.040028 0.039532 
0.01125 0.020017 0.026369 0.031524 0.036958 0.041414 0.045063 0.049627 0.037208 0.035582 0.035167 0.034558 0.033146 0.033002 0.032416 
-0.012768 -0.004576 0.001119 0.006322 0.011816 0.016835 0.021538 0.027439 0.025381 0.024343 0.024695 0.024164 0.023032 0.022914 0.022864 
-0.036138 -0.028697 -0.023155 -0.018414 -0.013341 -0.008313 -0.003257 0.003017 0.011006 0.011017 0.012133 0.011519 0.010994 0.011594 0.011509 
-0.057659 -0.051146 -0.046315 -0.042105 -0.036825 -0.032695 -0.027707 -0.021565 -0.005068 -0.004291 -0.002518 -0.00208 -0.001844 -0.001681 -0.001034 
-0.072149 -0.067506 -0.064646 -0.061418 -0.057135 -0.053646 -0.049363 -0.043718 -0.019548 -0.018367 -0.016726 -0.015963 -0.015508 -0.014865 -0.01383 
-0.08146 -0.079772 -0.077587 -0.075937 -0.072924 -0.069887 -0.066537 -0.061615 -0.032709 -0.030687 -0.029381 -0.027713 -0.027347 -0.025966 -0.024855 
-0.081796 -0.082747 -0.08263 -0.082956 -0.08095 -0.079966 -0.077466 -0.073966 -0.042968 -0.04073 -0.038903 -0.036396 -0.035723 -0.03487 -0.033591 
-0.073237 -0.076054 -0.078571 -0.080591 -0.08071 -0.081198 -0.080579 -0.078704 -0.048143 -0.046275 -0.044294 -0.042802 -0.041424 -0.040192 -0.039687 
-0.061096 -0.066034 -0.069121 -0.071975 -0.074112 -0.075172 -0.076338 -0.075992 -0.049676 -0.047277 -0.045956 -0.04484 -0.0432 -0.041899 -0.041338 
-0.038055 -0.045899 -0.050909 -0.055107 -0.058965 -0.061941 -0.064633 -0.066295 -0.045774 -0.043413 -0.042461 -0.04104 -0.039941 -0.03938 -0.038429 
-0.011142 -0.019213 -0.025827 -0.031454 -0.036746 -0.041559 -0.045721 -0.048879 -0.036865 -0.03583 -0.034805 -0.033673 -0.032869 -0.03233 -0.032109 
0.010224 0.003396 -0.002013 -0.007488 -0.012834 -0.018017 -0.02242 -0.027561 -0.025856 -0.025122 -0.025163 -0.024365 -0.023459 -0.023268 -0.023368 
0.036875 0.02838 0.023252 0.018127 0.012489 0.007382 0.002807 -0.00465 -0.011741 -0.01094 -0.012289 -0.012132 -0.011415 -0.01206 -0.011987 
0.059303 0.052414 0.047177 0.04293 0.037368 0.032194 0.027368 0.020437 0.004459 0.003628 0.002135 0.001714 0.002346 0.001164 0.001132 
0.071308 0.068015 0.064442 0.061747 0.057756 0.053526 0.049372 0.043776 0.020103 0.018103 0.016153 0.015078 0.015191 0.014167 0.013698 
0.082118 0.079628 0.07764 0.075922 0.072996 0.07045 0.0671 0.062449 0.033356 0.031407 0.029672 0.02775 0.026831 0.026219 0.025353 
0.081503 0.08233 0.082407 0.082376 0.080765 0.079798 0.077514 0.074421 0.042727 0.040276 0.038738 0.037145 0.035987 0.034882 0.034298 
0.071973 0.075423 0.077743 0.079576 0.08015 0.08078 0.080389 0.078218 0.048242 0.045601 0.043451 0.042233 0.04094 0.03991 0.039028 
0.06105 0.065331 0.068332 0.07113 0.073359 0.074964 0.076273 0.075836 0.049715 0.047359 0.045884 0.044274 0.042898 0.042409 0.04117 
0.038975 0.046367 0.051421 0.055325 0.058884 0.062001 0.064333 0.066378 0.04614 0.044126 0.043017 0.041735 0.040527 0.039629 0.039249 
0.011206 0.020049 0.026911 0.032187 0.037144 0.041786 0.045403 0.049552 0.037289 0.035827 0.03527 0.03427 0.033055 0.032577 0.032376 
-0.012809 -0.004551 0.000997 0.006672 0.012545 0.017412 0.022121 0.028126 0.025375 0.024486 0.024806 0.024151 0.023281 0.023535 0.023203 
-0.036322 -0.028758 -0.023507 -0.018506 -0.012865 -0.007777 -0.002949 0.003613 0.011431 0.01156 0.011857 0.012294 0.011571 0.011964 0.011859 
-0.057506 -0.05143 -0.046313 -0.041992 -0.036909 -0.032262 -0.027793 -0.021135 -0.004531 -0.003793 -0.002167 -0.001713 -0.001732 -0.001033 -0.000849 
-0.072025 -0.067958 -0.064456 -0.061829 -0.057324 -0.053327 -0.049584 -0.043285 -0.019751 -0.018365 -0.016259 -0.015807 -0.014826 -0.014171 -0.013361 
-0.080998 -0.07924 -0.07707 -0.075998 -0.072874 -0.069729 -0.066421 -0.061533 -0.032927 -0.030356 -0.028721 -0.027565 -0.026586 -0.025692 -0.025129 
-0.081428 -0.082276 -0.082598 -0.082201 -0.08085 -0.079625 -0.07739 -0.074148 -0.04325 -0.040708 -0.03803 -0.036983 -0.035751 -0.034464 -0.033776 
-0.072569 -0.075632 -0.077875 -0.079862 -0.080423 -0.080598 -0.080676 -0.079437 -0.048961 -0.046569 -0.044336 -0.042829 -0.041635 -0.040377 -0.039432 
-0.059338 -0.064141 -0.067464 -0.070678 -0.072919 -0.074552 -0.075931 -0.076836 -0.049893 -0.047306 -0.046275 -0.044265 -0.043417 -0.041939 -0.041792 
-0.037089 -0.044821 -0.050457 -0.053781 -0.057415 -0.060776 -0.063435 -0.066048 -0.045637 -0.04351 -0.042482 -0.041222 -0.039957 -0.038836 -0.038536 
-0.010571 -0.019421 -0.025557 -0.030574 -0.035535 -0.039963 -0.044226 -0.048207 -0.037027 -0.035346 -0.034721 -0.033997 -0.032703 -0.032476 -0.032266 
0.010408 0.003457 -0.001899 -0.006962 -0.012426 -0.01717 -0.021784 -0.027227 -0.025351 -0.024716 -0.024883 -0.024416 -0.023434 -0.023667 -0.023769 
0.035118 0.028084 0.022376 0.01756 0.012041 0.007093 0.002582 -0.003877 -0.01107 -0.011359 -0.012161 -0.01208 -0.011295 -0.012087 -0.011888 
0.058262 0.051559 0.046786 0.042253 0.036885 0.031417 0.027403 0.020946 0.004077 0.003663 0.002367 0.001935 0.00201 0.000913 0.000422 
0.071063 0.066649 0.063982 0.0614 0.056861 0.052814 0.048953 0.04296 0.019504 0.017942 0.015995 0.015096 0.014764 0.013549 0.013097 
0.081371 0.078663 0.076956 0.075271 0.071901 0.06982 0.066446 0.061418 0.0336 0.031127 0.02855 0.027439 0.027164 0.025507 0.025396 
0.081746 0.082379 0.082218 0.08216 0.080806 0.07924 0.077743 0.07429 0.043207 0.041028 0.03847 0.037026 0.03592 0.034621 0.033802 
0.071983 0.075511 0.077576 0.079677 0.080624 0.080487 0.080294 0.078854 0.048527 0.046207 0.044419 0.042754 0.041 0.040179 0.039361 
0.060599 0.065508 0.068138 0.071069 0.07306 0.07477 0.075942 0.076583 0.049859 0.047673 0.04645 0.045072 0.043478 0.042625 0.041814 
0.039074 0.046771 0.050965 0.055154 0.058385 0.061593 0.064431 0.066459 0.046073 0.044108 0.042928 0.042083 0.040468 0.039982 0.039144 
0.01161 0.020372 0.026787 0.031947 0.03684 0.041543 0.045563 0.048916 0.037505 0.035417 0.035147 0.03427 0.032976 0.032797 0.032521 
-0.012007 -0.004665 0.001468 0.006707 0.012178 0.01726 0.022536 0.027752 0.025178 0.024293 0.024758 0.02419 0.02309 0.023214 0.023058 
-0.035737 -0.028957 -0.023359 -0.018571 -0.01267 -0.007855 -0.002863 0.003168 0.010612 0.010821 0.011587 0.01212 0.010968 0.01146 0.011746 
-0.05722 -0.051088 -0.046236 -0.042046 -0.036583 -0.031994 -0.028157 -0.022151 -0.004478 -0.00417 -0.002584 -0.002096 -0.00265 -0.002101 -0.000919 
-0.07296 -0.068402 -0.064937 -0.061854 -0.057795 -0.053724 -0.050084 -0.043706 -0.019567 -0.018655 -0.016836 -0.016383 -0.016149 -0.015434 -0.014167 
-0.082468 -0.07989 -0.077972 -0.076446 -0.073178 -0.070055 -0.067173 -0.061801 -0.033189 -0.031674 -0.029426 -0.028144 -0.027374 -0.026224 -0.0253 
-0.081317 -0.082128 -0.082479 -0.082397 -0.080835 -0.079286 -0.077606 -0.074297 -0.043088 -0.040649 -0.038129 -0.036944 -0.035969 -0.03456 -0.033491 
-0.0733 -0.076625 -0.078293 -0.080172 -0.080777 -0.081369 -0.080627 -0.078797 -0.049115 -0.045906 -0.044234 -0.042862 -0.041538 -0.040425 -0.03947 
-0.060995 -0.065206 -0.068471 -0.071379 -0.073538 -0.075719 -0.076464 -0.076621 -0.050139 -0.047679 -0.046645 -0.044684 -0.042885 -0.042101 -0.041871 
-0.037481 -0.044747 -0.050249 -0.054463 -0.058437 -0.061368 -0.064083 -0.066157 -0.045484 -0.043639 -0.042554 -0.041134 -0.039402 -0.038961 -0.038811 
-0.010669 -0.019435 -0.025422 -0.031243 -0.036167 -0.040265 -0.04457 -0.048296 -0.037321 -0.035627 -0.034551 -0.033741 -0.032317 -0.032254 -0.032074 
0.010813 0.003923 -0.001751 -0.006693 -0.011772 -0.016827 -0.021383 -0.027235 -0.025684 -0.024808 -0.024882 -0.024465 -0.023334 -0.023539 -0.02353 
0.035633 0.028321 0.022737 0.01819 0.012719 0.007914 0.002956 -0.003433 -0.011107 -0.011073 -0.012074 -0.012141 -0.011231 -0.011978 -0.011804 
0.058398 0.051648 0.046959 0.042136 0.036968 0.032551 0.0272 0.021241 0.004274 0.004084 0.0025 0.001963 0.002591 0.001978 0.001368 
0.072297 0.068489 0.065344 0.061898 0.05763 0.053646 0.049732 0.043704 0.019869 0.019155 0.016634 0.015603 0.015303 0.01495 0.013727 
0.082793 0.080287 0.078248 0.076645 0.073317 0.070448 0.06741 0.062563 0.033567 0.031439 0.029532 0.028354 0.027027 0.026167 0.025688 
0.081858 0.082149 0.082533 0.082677 0.081418 0.08001 0.077795 0.074735 0.04312 0.040505 0.038648 0.037144 0.03593 0.035037 0.034449 
0.071425 0.074993 0.077835 0.079597 0.080327 0.080565 0.080345 0.078857 0.048716 0.046224 0.043945 0.042067 0.041265 0.040203 0.039079 
0.060251 0.064775 0.068056 0.071348 0.072875 0.074677 0.075559 0.076243 0.050044 0.047261 0.046284 0.044549 0.043187 0.042128 0.041233 
0.038906 0.045395 0.050384 0.054969 0.058208 0.061474 0.063695 0.066366 0.045942 0.043765 0.042892 0.0416 0.039824 0.039827 0.038853 
0.011316 0.019952 0.025938 0.031352 0.036473 0.041043 0.04493 0.049274 0.037584 0.035743 0.035042 0.03424 0.032702 0.033091 0.032129 
-0.012261 -0.004018 0.001366 0.006588 0.012172 0.017069 0.021796 0.027736 0.026066 0.024704 0.025306 0.024617 0.023499 0.023717 0.023188 
-0.036256 -0.029028 -0.023195 -0.018591 -0.012882 -0.008326 -0.002999 0.003551 0.011207 0.011399 0.012073 0.012018 0.0116 0.011899 0.011806 
-0.057635 -0.051137 -0.046647 -0.042713 -0.036976 -0.032953 -0.027565 -0.021324 -0.004562 -0.003857 -0.00274 -0.001814 -0.001934 -0.001304 -0.000895 
-0.07211 -0.067712 -0.065029 -0.062352 -0.057691 -0.054232 -0.049538 -0.043615 -0.019936 -0.018646 -0.016652 -0.015722 -0.015547 -0.014583 -0.013567 
-0.081529 -0.07996 -0.078146 -0.076143 -0.073283 -0.070533 -0.067181 -0.062237 -0.033887 -0.031491 -0.029348 -0.028127 -0.027423 -0.026689 -0.025056 
-0.081018 -0.082078 -0.082463 -0.082466 -0.080946 -0.079866 -0.077726 -0.074869 -0.043448 -0.040763 -0.038589 -0.036986 -0.036149 -0.034846 -0.033711 
-0.072287 -0.075516 -0.077693 -0.080098 -0.080446 -0.080855 -0.080082 -0.079262 -0.048911 -0.046286 -0.044289 -0.043157 -0.041734 -0.040041 -0.039549 
-0.060059 -0.064876 -0.068332 -0.070702 -0.073241 -0.074612 -0.075892 -0.076852 -0.049904 -0.047741 -0.04622 -0.045031 -0.04347 -0.04278 -0.041744 
-0.037869 -0.04494 -0.050373 -0.05442 -0.058063 -0.061319 -0.063887 -0.066293 -0.045631 -0.043307 -0.04269 -0.041359 -0.040153 -0.039775 -0.039006 
-0.011409 -0.019145 -0.025307 -0.031111 -0.036071 -0.04052 -0.044649 -0.048412 -0.037517 -0.035076 -0.035353 -0.034333 -0.032715 -0.032555 -0.032588 
0.010658 0.003758 -0.001466 -0.00617 -0.012179 -0.016342 -0.021955 -0.027568 -0.02524 -0.024382 -0.025058 -0.024292 -0.023047 -0.02348 -0.023539 
0.035746 0.027908 0.022905 0.018283 0.012649 0.008078 0.003197 -0.003497 -0.010452 -0.010848 -0.011609 -0.01165 -0.011051 -0.011606 -0.011865 
0.058221 0.051431 0.046778 0.042557 0.037203 0.032647 0.027993 0.021381 0.004588 0.003761 0.002745 0.002128 0.002468 0.001514 0.001231 
0.071733 0.067839 0.064769 0.061969 0.057455 0.054241 0.049426 0.043285 0.01984 0.01857 0.016545 0.016049 0.01563 0.014177 0.014225 
0.081782 0.07944 0.077685 0.075678 0.072828 0.070138 0.067018 0.062099 0.033399 0.031723 0.029187 0.028058 0.027521 0.02593 0.025536 
0.081021 0.081795 0.082221 0.082343 0.080817 0.079221 0.077606 0.074574 0.043153 0.040718 0.038642 0.037015 0.036182 0.034531 0.033515 
0.071481 0.07471 0.077441 0.079203 0.079715 0.080283 0.079947 0.078747 0.048407 0.045774 0.043999 0.042904 0.041355 0.039716 0.038766 
0.060551 0.064764 0.068117 0.07044 0.07272 0.074173 0.07553 0.075904 0.049364 0.047029 0.045955 0.044634 0.043192 0.042448 0.041374 
0.039009 0.046462 0.050802 0.055135 0.058626 0.061103 0.063788 0.065793 0.045837 0.043554 0.04313 0.041477 0.039839 0.039995 0.038891 
0.011503 0.020251 0.026132 0.031779 0.037004 0.041177 0.045161 0.04921 0.037335 0.035613 0.035171 0.034271 0.032655 0.032439 0.032057 
-0.012195 -0.004859 0.00097 0.00659 0.012149 0.017053 0.021902 0.027743 0.025137 0.024341 0.024564 0.024436 0.023155 0.023276 0.023349 
-0.036069 -0.028672 -0.023676 -0.018319 -0.013414 -0.008153 -0.003247 0.003089 0.01074 0.010757 0.011558 0.012224 0.011052 0.012024 0.012406 
-0.057259 -0.050951 -0.046382 -0.042025 -0.03722 -0.032111 -0.027677 -0.021653 -0.004646 -0.004002 -0.003063 -0.002266 -0.002193 -0.001573 -0.000769 
-0.072243 -0.06861 -0.065275 -0.062147 -0.057339 -0.053657 -0.049792 -0.044035 -0.020003 -0.018862 -0.016995 -0.016654 -0.015589 -0.014997 -0.014068 
-0.081433 -0.079649 -0.077842 -0.076453 -0.072753 -0.070338 -0.066975 -0.062254 -0.033224 -0.031525 -0.029176 -0.028156 -0.02741 -0.0261 -0.025112 
-0.080869 -0.081436 -0.08155 -0.081798 -0.080642 -0.07929 -0.077333 -0.073891 -0.042366 -0.0403 -0.038013 -0.036643 -0.035791 -0.034272 -0.033379 
-0.072845 -0.075724 -0.077952 -0.079681 -0.080082 -0.080635 -0.080726 -0.078449 -0.048473 -0.046114 -0.043676 -0.042858 -0.041216 -0.040055 -0.039076 
-0.060016 -0.064702 -0.067617 -0.071224 -0.073018 -0.074723 -0.075825 -0.076398 -0.050177 -0.047933 -0.046033 -0.044754 -0.043054 -0.04205 -0.041104 
-0.037343 -0.044749 -0.04945 -0.053994 -0.058225 -0.060968 -0.063005 -0.066054 -0.045599 -0.043848 -0.042774 -0.040964 -0.03996 -0.038876 -0.038521 
-0.010942 -0.019235 -0.02558 -0.030884 -0.035763 -0.040325 -0.044382 -0.048654 -0.036921 -0.03539 -0.035221 -0.034099 -0.032814 -0.032441 -0.032284 
0.010902 0.003883 -0.001504 -0.006979 -0.011867 -0.016855 -0.021626 -0.027486 -0.025508 -0.024486 -0.025091 -0.024883 -0.02328 -0.023801 -0.023649 
0.035686 0.02825 0.02274 0.017985 0.012429 0.007345 0.003008 -0.003255 -0.01138 -0.011119 -0.011892 -0.01205 -0.011484 -0.012082 -0.012103 
0.058868 0.051899 0.046673 0.042309 0.037359 0.032192 0.02762 0.021392 0.004533 0.003888 0.002606 0.002284 0.002061 0.001216 0.001005 
0.071944 0.067716 0.064999 0.061817 0.057549 0.0538 0.049583 0.043904 0.019982 0.018521 0.016805 0.016126 0.015536 0.014141 0.013675 
0.081239 0.079174 0.077609 0.07587 0.07241 0.069958 0.066586 0.062548 0.032946 0.031324 0.029613 0.028269 0.027233 0.025904 0.025253 
0.081172 0.082253 0.081987 0.082045 0.080827 0.079536 0.077124 0.074035 0.042577 0.0404 0.038461 0.036649 0.035573 0.03465 0.03343 
0.071475 0.075311 0.077743 0.079646 0.080333 0.080659 0.079993 0.078587 0.048285 0.045665 0.04355 0.042091 0.041014 0.040224 0.038834 
0.060251 0.064739 0.068369 0.071057 0.073263 0.074827 0.075999 0.076498 0.050055 0.047765 0.045848 0.044532 0.043315 0.042588 0.041682 
0.039286 0.045953 0.050621 0.054822 0.05874 0.061751 0.064337 0.066283 0.0467 0.044352 0.043154 0.04181 0.040275 0.03976 0.038845 
0.011631 0.020243 0.026395 0.031901 0.036762 0.041326 0.044953 0.049432 0.037648 0.036029 0.035458 0.03436 0.033097 0.032756 0.032051 
-0.012448 -0.004555 0.000808 0.006667 0.011897 0.01699 0.021572 0.027788 0.025354 0.024932 0.025099 0.023886 0.023461 0.023528 0.023088 
-0.036218 -0.028822 -0.024281 -0.01883 -0.013479 -0.008535 -0.003318 0.003144 0.011301 0.010879 0.012359 0.011915 0.011244 0.011977 0.011613 
-0.057446 -0.051072 -0.046268 -0.042458 -0.037553 -0.032408 -0.027899 -0.021382 -0.004086 -0.003659 -0.001945 -0.001562 -0.002173 -0.001216 -0.0007 
-0.072468 -0.067891 -0.064772 -0.061721 -0.057674 -0.053194 -0.049833 -0.043659 -0.019239 -0.017718 -0.016197 -0.015679 -0.015352 -0.014401 -0.013481 
-0.082557 -0.079449 -0.078131 -0.075955 -0.072915 -0.070388 -0.06713 -0.062047 -0.032909 -0.03137 -0.029207 -0.027742 -0.027124 -0.025943 -0.025096 
-0.082368 -0.083246 -0.083153 -0.083374 -0.081722 -0.08043 -0.078044 -0.07442 -0.043273 -0.040847 -0.038732 -0.037097 -0.036049 -0.03468 -0.033537 
-0.073159 -0.077184 -0.079502 -0.081407 -0.081512 -0.081491 -0.081283 -0.079457 -0.049022 -0.046056 -0.044356 -0.042891 -0.041665 -0.040387 -0.039578 
-0.060541 -0.064866 -0.068532 -0.071276 -0.073571 -0.075101 -0.076282 -0.076893 -0.050548 -0.048019 -0.046501 -0.044347 -0.043222 -0.042436 -0.041704 
-0.037347 -0.044683 -0.049664 -0.053793 -0.058057 -0.061112 -0.06357 -0.066658 -0.046466 -0.043828 -0.043183 -0.041412 -0.039852 -0.039329 -0.038584 
-0.009787 -0.018772 -0.024943 -0.03046 -0.035329 -0.040373 -0.044222 -0.049405 -0.037418 -0.035175 -0.035333 -0.034161 -0.032914 -0.032505 -0.032445 
0.010958 0.003671 -0.00105 -0.006483 -0.011696 -0.016741 -0.021001 -0.027248 -0.025706 -0.024798 -0.025249 -0.024324 -0.023422 -0.023774 -0.023879 
0.035438 0.027681 0.02297 0.018282 0.01256 0.007952 0.003437 -0.002584 -0.010766 -0.011277 -0.012103 -0.012101 -0.011155 -0.011793 -0.012129 
0.058603 0.051881 0.046805 0.042678 0.03755 0.032408 0.027772 0.021901 0.005103 0.003792 0.002354 0.002007 0.002395 0.001576 0.001061 
0.071807 0.067846 0.064837 0.061809 0.057667 0.053855 0.049693 0.043626 0.019656 0.018658 0.01641 0.016054 0.015912 0.014297 0.014139 
0.082532 0.07997 0.078351 0.076455 0.073159 0.070517 0.067175 0.061685 0.033295 0.032016 0.029646 0.028448 0.027669 0.026467 0.025942 
0.082131 0.082948 0.083439 0.083411 0.081863 0.079943 0.078097 0.074304 0.043204 0.040689 0.038579 0.037 0.035748 0.035167 0.034163 
0.071586 0.075453 0.07776 0.079936 0.08083 0.080925 0.080959 0.079144 0.048048 0.045646 0.043754 0.042374 0.041087 0.040071 0.039092 
0.060492 0.065054 0.067938 0.070704 0.073274 0.074587 0.076263 0.076389 0.049435 0.047225 0.046057 0.04418 0.043025 0.041901 0.040995 
0.039418 0.046029 0.051128 0.05509 0.058375 0.061041 0.064125 0.066333 0.046343 0.043692 0.042636 0.040855 0.039669 0.038977 0.038672 
0.012015 0.020415 0.026599 0.031914 0.036634 0.041134 0.04513 0.049505 0.03772 0.036155 0.035136 0.034458 0.032717 0.032567 0.032736 
-0.012258 -0.004351 0.001482 0.006055 0.012319 0.017169 0.021647 0.027758 0.025431 0.024835 0.024989 0.024695 0.023202 0.023449 0.023432 
-0.036441 -0.029032 -0.02354 -0.018982 -0.01324 -0.008135 -0.003165 0.003124 0.01094 0.010655 0.011958 0.0117 0.010924 0.011387 0.011842 
-0.056875 -0.050954 -0.046814 -0.042003 -0.037435 -0.032383 -0.027507 -0.02139 -0.004966 -0.004191 -0.002332 -0.002254 -0.001954 -0.001765 -0.00075 
-0.071438 -0.067881 -0.064841 -0.061627 -0.057381 -0.053651 -0.049993 -0.044025 -0.02031 -0.018996 -0.016858 -0.01633 -0.01527 -0.014934 -0.014047 
-0.081851 -0.079475 -0.077673 -0.075969 -0.072569 -0.069968 -0.067352 -0.062712 -0.03311 -0.031582 -0.029167 -0.02816 -0.027622 -0.026371 -0.025497 
-0.081868 -0.082171 -0.082432 -0.082185 -0.081169 -0.079731 -0.077718 -0.074202 -0.042355 -0.040201 -0.038066 -0.03656 -0.035302 -0.034337 -0.033616 
-0.072963 -0.076143 -0.078188 -0.079926 -0.081059 -0.081131 -0.080599 -0.078786 -0.048206 -0.04572 -0.044224 -0.042222 -0.040741 -0.039991 -0.039161 
-0.060731 -0.065041 -0.068413 -0.0713 -0.073194 -0.074535 -0.075906 -0.076308 -0.04981 -0.047478 -0.046017 -0.044318 -0.043361 -0.042236 -0.041319 
-0.038185 -0.045413 -0.050317 -0.054584 -0.058241 -0.061233 -0.064019 -0.065619 -0.045973 -0.043714 -0.042341 -0.041213 -0.039481 -0.03886 -0.03843 
-0.010637 -0.01935 -0.025346 -0.031017 -0.036384 -0.041153 -0.044709 -0.048828 -0.037709 -0.035472 -0.03483 -0.03377 -0.032569 -0.03233 -0.031778 
0.010844 0.003563 -0.00193 -0.007166 -0.012079 -0.017165 -0.021354 -0.027549 -0.025661 -0.024417 -0.024893 -0.024183 -0.023669 -0.023619 -0.02322 
0.035137 0.027673 0.02246 0.017307 0.01226 0.007627 0.002535 -0.003254 -0.011005 -0.01103 -0.011893 -0.012105 -0.01152 -0.011593 -0.011862 
0.057822 0.051459 0.04672 0.041922 0.036389 0.032099 0.026826 0.020993 0.00424 0.003372 0.002308 0.001591 0.001809 0.00142 0.000755 
0.07091 0.066984 0.064022 0.06137 0.056837 0.053559 0.04914 0.043203 0.019373 0.017999 0.016024 0.015378 0.015263 0.014282 0.013148 
0.081813 0.079117 0.077306 0.075782 0.072531 0.070065 0.066646 0.061623 0.032813 0.031185 0.029514 0.028129 0.027041 0.026296 0.02515 
0.082094 0.082719 0.083039 0.082928 0.081341 0.079948 0.07745 0.07367 0.042602 0.039895 0.038546 0.036947 0.035237 0.034779 0.033449 
0.071724 0.075349 0.077856 0.080106 0.080695 0.080841 0.080214 0.078258 0.048481 0.045122 0.043157 0.04183 0.040592 0.039626 0.03857 
0.060139 0.064916 0.067542 0.070864 0.072922 0.07422 0.075849 0.076137 0.049993 0.04738 0.045865 0.043847 0.042718 0.041712 0.041098 
0.039103 0.046287 0.050686 0.054953 0.058344 0.061614 0.064147 0.066553 0.04599 0.043729 0.042721 0.041619 0.03996 0.039666 0.038338 
0.012307 0.020584 0.026966 0.032162 0.037322 0.041788 0.045011 0.049315 0.037574 0.035647 0.035048 0.03457 0.033237 0.032991 0.03217 
-0.011976 -0.004239 0.001338 0.006669 0.012549 0.017148 0.021976 0.027553 0.025873 0.025 0.025255 0.024193 0.023519 0.023516 0.023469 
-0.036182 -0.028621 -0.023966 -0.018852 -0.013237 -0.008183 -0.002584 0.003489 0.011215 0.011014 0.011857 0.012242 0.011182 0.011709 0.012069 
-0.056668 -0.050598 -0.046244 -0.042032 -0.03683 -0.032353 -0.027489 -0.020915 -0.004055 -0.003729 -0.002034 -0.001483 -0.001774 -0.001363 -0.000581 
-0.071896 -0.067996 -0.06438 -0.061739 -0.057166 -0.053536 -0.049401 -0.043184 -0.019104 -0.01799 -0.015794 -0.015904 -0.014906 -0.014059 -0.013838 
-0.081762 -0.079542 -0.077814 -0.076429 -0.072905 -0.06991 -0.066737 -0.061926 -0.032809 -0.031063 -0.028972 -0.02787 -0.026957 -0.026097 -0.025032 
-0.081431 -0.081873 -0.082504 -0.082381 -0.081243 -0.079449 -0.077666 -0.0741 -0.04259 -0.040162 -0.037989 -0.036621 -0.035447 -0.034649 -0.033487 
-0.073042 -0.075995 -0.078068 -0.079825 -0.080652 -0.08082 -0.080228 -0.078432 -0.048309 -0.04564 -0.044114 -0.042212 -0.041047 -0.039839 -0.039405 
-0.06038 -0.064779 -0.068062 -0.071244 -0.072769 -0.074864 -0.076211 -0.076061 -0.049678 -0.047032 -0.046301 -0.044056 -0.043125 -0.042396 -0.040952 
-0.038167 -0.045553 -0.05025 -0.054877 -0.05829 -0.061555 -0.064513 -0.065811 -0.046043 -0.043321 -0.042382 -0.041262 -0.039625 -0.039145 -0.038136 
-0.011033 -0.019903 -0.025487 -0.030863 -0.03611 -0.040987 -0.044677 -0.049023 -0.03779 -0.03577 -0.035403 -0.034058 -0.03253 -0.032491 -0.031942 
0.011084 0.003755 -0.001561 -0.006163 -0.011539 -0.016806 -0.021648 -0.028555 -0.025741 -0.024549 -0.025408 -0.024654 -0.023639 -0.024003 -0.02347 
0.035521 0.027806 0.022657 0.017882 0.012645 0.007955 0.002769 -0.003843 -0.010983 -0.010577 -0.011588 -0.012508 -0.01135 -0.011773 -0.01234 
0.058047 0.051246 0.046411 0.042172 0.036873 0.032031 0.027672 0.021965 0.004758 0.004128 0.002811 0.002057 0.002433 0.001427 0.000711 
0.070641 0.06706 0.064086 0.061409 0.056855 0.0529 0.049484 0.043698 0.019945 0.018377 0.016223 0.015725 0.01492 0.014464 0.013512 
0.081423 0.079246 0.077592 0.075406 0.07234 0.069326 0.066445 0.061508 0.033379 0.03108 0.028756 0.027815 0.026873 0.026553 0.025546 
0.082483 0.08274 0.082802 0.082443 0.080725 0.079445 0.077268 0.074349 0.042635 0.040533 0.038216 0.036963 0.035786 0.034587 0.034103 
0.072041 0.075408 0.077729 0.079717 0.0797 0.080705 0.080325 0.079015 0.048165 0.045782 0.043904 0.042431 0.040872 0.039906 0.039056 
0.060336 0.065282 0.067992 0.071389 0.073273 0.074663 0.075811 0.076162 0.050483 0.047292 0.046424 0.044799 0.043588 0.042565 0.041442 
0.039599 0.046382 0.050767 0.055238 0.0588 0.061782 0.064076 0.066431 0.046391 0.044108 0.043058 0.041756 0.040794 0.039808 0.03895 
0.011858 0.020409 0.026883 0.031659 0.036873 0.041641 0.045413 0.049303 0.036878 0.03579 0.034672 0.03421 0.033095 0.03311 0.032913 
-0.012684 -0.004255 0.001736 0.007078 0.012749 0.0175 0.022164 0.027488 0.02492 0.024359 0.024837 0.024366 0.023229 0.023403 0.023627 
-0.036566 -0.029263 -0.023805 -0.018434 -0.013129 -0.008024 -0.002891 0.003466 0.01026 0.010581 0.011927 0.011438 0.01082 0.010876 0.011256 
-0.057575 -0.050842 -0.046445 -0.042274 -0.0371 -0.032526 -0.027346 -0.0217 -0.005644 -0.004603 -0.003387 -0.002882 -0.002795 -0.002139 -0.001262 
-0.072201 -0.067227 -0.064522 -0.061666 -0.057209 -0.053505 -0.049135 -0.044391 -0.020225 -0.019019 -0.017274 -0.016354 -0.015988 -0.01514 -0.014206 
-0.082051 -0.080027 -0.078008 -0.076465 -0.073241 -0.070093 -0.066995 -0.062034 -0.033112 -0.031563 -0.029226 -0.028095 -0.027616 -0.026662 -0.02568 
-0.08197 -0.082888 -0.082996 -0.082712 -0.081348 -0.079834 -0.078013 -0.074017 -0.043229 -0.040761 -0.038492 -0.036896 -0.036254 -0.034875 -0.033765 
-0.072472 -0.075991 -0.078776 -0.080278 -0.081033 -0.081095 -0.080637 -0.079187 -0.048909 -0.046219 -0.044216 -0.042748 -0.041588 -0.04053 -0.039547 
-0.059857 -0.064691 -0.068065 -0.071345 -0.073312 -0.074931 -0.076003 -0.077048 -0.049836 -0.047588 -0.046009 -0.044557 -0.042963 -0.042256 -0.041461 
-0.03749 -0.044838 -0.049676 -0.054081 -0.057891 -0.060838 -0.063293 -0.066132 -0.04578 -0.043148 -0.042261 -0.040971 -0.039421 -0.038804 -0.038288 
-0.010185 -0.019074 -0.025351 -0.03061 -0.035932 -0.040046 -0.043982 -0.04828 -0.037274 -0.035053 -0.034669 -0.034001 -0.032676 -0.03235 -0.031916 
0.011076 0.003705 -0.001361 -0.006356 -0.011584 -0.016893 -0.021822 -0.027429 -0.025319 -0.024439 -0.024806 -0.024372 -0.023538 -0.02339 -0.023638 
0.036211 0.028139 0.023293 0.01849 0.012608 0.007924 0.002934 -0.003065 -0.010543 -0.010336 -0.011537 -0.011482 -0.010622 -0.011291 -0.011937 
0.059413 0.052288 0.047722 0.042866 0.0374 0.033128 0.028231 0.021924 0.005305 0.004367 0.00267 0.00221 0.002934 0.001825 0.001337 
0.071235 0.068073 0.065285 0.062325 0.058694 0.054115 0.049671 0.043668 0.020041 0.01849 0.016266 0.015646 0.01526 0.014592 0.013445 
0.081479 0.079484 0.077296 0.075852 0.073097 0.069936 0.066576 0.061937 0.033118 0.031402 0.02943 0.028387 0.027229 0.026249 0.025312 
0.082082 0.082369 0.082585 0.082131 0.080963 0.079547 0.07775 0.074479 0.043513 0.040804 0.039006 0.037326 0.035877 0.034846 0.034132 
0.071512 0.07445 0.077617 0.079586 0.080255 0.080547 0.080397 0.079656 0.049068 0.04633 0.044406 0.042755 0.041448 0.04055 0.039215 
0.060314 0.06417 0.067407 0.070572 0.072304 0.074334 0.075546 0.076589 0.050116 0.047522 0.046398 0.045181 0.043771 0.042492 0.041836 
0.038951 0.046332 0.050594 0.054599 0.058237 0.061123 0.063706 0.065827 0.046351 0.043723 0.043186 0.041864 0.039959 0.039315 0.038949 
0.010879 0.020091 0.026002 0.031129 0.036907 0.040737 0.044393 0.049071 0.03718 0.03523 0.035396 0.034297 0.03262 0.032968 0.032083 
-0.012344 -0.004484 0.001326 0.006067 0.01214 0.017016 0.021302 0.026925 0.024908 0.023735 0.024791 0.024345 0.023094 0.02359 0.023168 
-0.036163 -0.028385 -0.023242 -0.018463 -0.013013 -0.007941 -0.003052 0.002386 0.010421 0.010339 0.011679 0.011371 0.010968 0.011346 0.011459 
-0.057574 -0.050959 -0.046637 -0.042359 -0.037056 -0.032708 -0.027562 -0.021703 -0.004918 -0.004327 -0.002999 -0.002611 -0.002193 -0.001624 -0.000961 
-0.071741 -0.067646 -0.064372 -0.061517 -0.057336 -0.053889 -0.049222 -0.043562 -0.019707 -0.018565 -0.017119 -0.016026 -0.01568 -0.014764 -0.013683 
-0.081909 -0.079318 -0.077859 -0.075671 -0.07286 -0.070115 -0.066798 -0.061669 -0.03362 -0.031632 -0.029225 -0.028299 -0.027661 -0.026567 -0.025767 
-0.082297 -0.082492 -0.083051 -0.082925 -0.081372 -0.079637 -0.077955 -0.074342 -0.043181 -0.041219 -0.03878 -0.037629 -0.036367 -0.035166 -0.034186 
-0.072988 -0.076541 -0.078399 -0.080292 -0.081262 -0.081042 -0.080579 -0.078923 -0.04812 -0.046223 -0.044403 -0.042942 -0.041529 -0.040449 -0.039256 
-0.060288 -0.06515 -0.068371 -0.070951 -0.073617 -0.075335 -0.076363 -0.076305 -0.050186 -0.047699 -0.04605 -0.044426 -0.042998 -0.04221 -0.041417 
-0.037509 -0.044545 -0.049506 -0.054388 -0.058147 -0.061298 -0.064061 -0.066695 -0.046048 -0.043659 -0.043216 -0.041522 -0.039999 -0.039439 -0.038794 
-0.010528 -0.018961 -0.024888 -0.030888 -0.036273 -0.040146 -0.044141 -0.04887 -0.036715 -0.035245 -0.035228 -0.034368 -0.032878 -0.032574 -0.032089 
0.010864 0.003572 -0.001856 -0.006643 -0.012002 -0.016765 -0.02152 -0.026918 -0.025781 -0.024762 -0.024813 -0.024521 -0.023143 -0.023426 -0.023365 
0.036349 0.028092 0.022867 0.018146 0.012899 0.008064 0.003142 -0.003294 -0.011055 -0.010487 -0.012162 -0.011649 -0.010877 -0.01176 -0.011927 
0.059038 0.051668 0.046677 0.042921 0.036993 0.032731 0.028124 0.021883 0.005253 0.005081 0.002581 0.002648 0.002548 0.001676 0.001534 
0.071806 0.067988 0.064816 0.06232 0.057833 0.053672 0.04957 0.044103 0.019865 0.018859 0.016753 0.016029 0.015727 0.014627 0.014102 
0.082098 0.079589 0.078053 0.075826 0.073324 0.070095 0.066786 0.061669 0.033886 0.031733 0.029657 0.02852 0.027729 0.026335 0.025072 
0.081105 0.08143 0.081713 0.082258 0.080886 0.079293 0.077483 0.07475 0.043842 0.041315 0.03919 0.037742 0.036179 0.035082 0.034066 
0.071078 0.074413 0.076715 0.079272 0.079855 0.079867 0.079609 0.079427 0.048864 0.046038 0.044413 0.042943 0.041363 0.040355 0.039668 
0.060227 0.064393 0.067475 0.069839 0.072041 0.074055 0.074837 0.075932 0.0503 0.047479 0.046311 0.044659 0.043309 0.04257 0.041534 
0.038892 0.045447 0.050187 0.054482 0.057876 0.061038 0.063431 0.065756 0.045727 0.044062 0.043235 0.041492 0.040111 0.039871 0.039304 
0.011275 0.019763 0.025932 0.031803 0.036975 0.040809 0.044517 0.048386 0.036888 0.035668 0.035247 0.034437 0.032935 0.032821 0.032637 
-0.012797 -0.004997 0.000704 0.005874 0.011762 0.017096 0.021174 0.02688 0.025102 0.024487 0.024562 0.02429 0.023304 0.023376 0.023067 
-0.036537 -0.029176 -0.023744 -0.019091 -0.013626 -0.008034 -0.003344 0.002918 0.010262 0.010843 0.011747 0.011305 0.011178 0.011677 0.011951 
-0.05771 -0.050851 -0.046204 -0.042057 -0.037251 -0.032605 -0.027711 -0.021455 -0.004893 -0.00387 -0.002747 -0.002685 -0.002359 -0.001402 -0.000959 
-0.072089 -0.067664 -0.064718 -0.061578 -0.057872 -0.053534 -0.049455 -0.043531 -0.019936 -0.01856 -0.01694 -0.01638 -0.015801 -0.014681 -0.014272 
-0.081034 -0.078772 -0.077275 -0.075491 -0.072693 -0.069636 -0.066745 -0.062533 -0.03364 -0.031767 -0.029283 -0.028178 -0.027517 -0.02644 -0.02551 
-0.081362 -0.081536 -0.081586 -0.081748 -0.080235 -0.079246 -0.077221 -0.0748 -0.043345 -0.041144 -0.039119 -0.037163 -0.036264 -0.0354 -0.034408 
-0.073172 -0.076191 -0.078079 -0.079965 -0.080367 -0.080682 -0.079755 -0.079101 -0.049098 -0.046878 -0.044901 -0.043353 -0.041974 -0.041317 -0.040174 
-0.060232 -0.064478 -0.068097 -0.071167 -0.07268 -0.074589 -0.075546 -0.076433 -0.050365 -0.048141 -0.046092 -0.045077 -0.043619 -0.042782 -0.041505 
-0.03764 -0.044326 -0.049558 -0.054124 -0.057324 -0.06079 -0.06331 -0.065804 -0.045942 -0.043923 -0.042808 -0.041454 -0.0401 -0.039438 -0.038849 
-0.01107 -0.019107 -0.025255 -0.030666 -0.035842 -0.040312 -0.043897 -0.048609 -0.037113 -0.035887 -0.03526 -0.034271 -0.033035 -0.032542 -0.032678 
0.01089 0.003905 -0.00143 -0.006422 -0.011565 -0.016806 -0.021113 -0.027154 -0.025506 -0.024952 -0.02503 -0.024435 -0.023648 -0.023239 -0.023382 
0.036447 0.028732 0.023705 0.018666 0.013448 0.008214 0.003526 -0.002627 -0.010928 -0.010674 -0.012094 -0.011758 -0.011256 -0.011438 -0.011651 
0.05912 0.052381 0.047507 0.042907 0.037404 0.032789 0.027999 0.022273 0.004989 0.004824 0.002544 0.002206 0.002344 0.002024 0.001156 
0.071703 0.067465 0.064637 0.061798 0.057365 0.053586 0.049482 0.043799 0.019766 0.018332 0.016628 0.015938 0.01537 0.014485 0.013995 
0.082065 0.079473 0.077833 0.076385 0.072893 0.069928 0.066774 0.061319 0.033101 0.030719 0.029402 0.028315 0.027375 0.025918 0.025413 
0.082118 0.083108 0.083174 0.083264 0.081573 0.079993 0.077861 0.074277 0.043177 0.041093 0.038742 0.03733 0.036052 0.035196 0.033605 
0.071942 0.075246 0.077966 0.079722 0.080876 0.081341 0.080749 0.079546 0.048965 0.046605 0.044314 0.042669 0.04146 0.040251 0.03945 
0.059828 0.064161 0.06745 0.07031 0.072917 0.074711 0.075874 0.076845 0.050523 0.047854 0.04627 0.044525 0.043519 0.04204 0.041826 
0.03831 0.045744 0.050289 0.054092 0.057831 0.060615 0.063436 0.066424 0.045961 0.04419 0.043097 0.041751 0.040165 0.039646 0.038952 
0.011912 0.020343 0.026511 0.030918 0.036325 0.04048 0.044634 0.048894 0.037057 0.036027 0.035657 0.034705 0.033037 0.032937 0.032839 
-0.012107 -0.004787 0.000757 0.005867 0.011691 0.01716 0.021927 0.027464 0.025488 0.024708 0.024981 0.024486 0.023406 0.023526 0.023669 
-0.036618 -0.029014 -0.024388 -0.019102 -0.013959 -0.008346 -0.003382 0.003455 0.010527 0.010454 0.011953 0.011752 0.011392 0.011468 0.011835 
-0.057018 -0.050423 -0.046302 -0.042097 -0.037479 -0.033101 -0.027954 -0.021446 -0.005186 -0.004172 -0.002302 -0.001882 -0.001829 -0.001698 -0.000921 
-0.072096 -0.067855 -0.064497 -0.061353 -0.057207 -0.053487 -0.049342 -0.044311 -0.019844 -0.018482 -0.016522 -0.015316 -0.015598 -0.014592 -0.014024 
-0.082133 -0.079943 -0.078113 -0.075975 -0.072871 -0.069599 -0.067017 -0.062533 -0.032657 -0.031155 -0.028858 -0.027631 -0.027284 -0.026182 -0.02527 
-0.081356 -0.082724 -0.082949 -0.082796 -0.081327 -0.079763 -0.077913 -0.073996 -0.042678 -0.040326 -0.038551 -0.037103 -0.035351 -0.034728 -0.034037 
-0.073316 -0.077027 -0.078932 -0.080706 -0.081042 -0.081206 -0.080838 -0.079075 -0.049047 -0.046632 -0.044495 -0.043072 -0.041219 -0.040393 -0.040066 
-0.060726 -0.065004 -0.068578 -0.071413 -0.073416 -0.075037 -0.076411 -0.076926 -0.049849 -0.047835 -0.046185 -0.044917 -0.04353 -0.04235 -0.041466 
-0.037326 -0.044633 -0.049605 -0.054143 -0.057782 -0.061279 -0.063755 -0.066222 -0.045597 -0.043401 -0.043049 -0.041578 -0.03997 -0.039086 -0.038548 
-0.010484 -0.019265 -0.024853 -0.030255 -0.035593 -0.040384 -0.044346 -0.048722 -0.036925 -0.035367 -0.034825 -0.034085 -0.032517 -0.032223 -0.031931 
0.011297 0.004118 -0.001289 -0.005793 -0.011732 -0.016776 -0.021716 -0.026803 -0.024865 -0.024167 -0.024222 -0.023995 -0.023134 -0.023168 -0.022852 
0.035908 0.028043 0.023096 0.018372 0.012835 0.007937 0.002714 -0.002733 -0.010907 -0.010683 -0.01176 -0.011481 -0.011013 -0.011637 -0.011879 
0.058693 0.051545 0.046784 0.042389 0.036999 0.032456 0.027558 0.021221 0.004807 0.003681 0.002492 0.002192 0.002341 0.001491 0.001228 
0.072011 0.068248 0.064771 0.062032 0.057425 0.053626 0.049632 0.043458 0.019964 0.018025 0.016337 0.015584 0.015315 0.014727 0.013986 
0.081798 0.079478 0.07816 0.076032 0.072889 0.070359 0.067067 0.061998 0.033362 0.031349 0.028965 0.027996 0.027339 0.02653 0.025121 
0.081505 0.082018 0.082561 0.082258 0.080946 0.079578 0.077762 0.073859 0.043454 0.040684 0.038407 0.037079 0.035888 0.034885 0.03361 
0.071167 0.074777 0.076903 0.079447 0.080315 0.080238 0.079889 0.078769 0.048465 0.045907 0.043684 0.042139 0.041131 0.039932 0.038735 
0.060241 0.06428 0.06741 0.070666 0.072803 0.074484 0.075205 0.076705 0.04962 0.047844 0.045689 0.044337 0.043186 0.042271 0.04131 
0.039706 0.046405 0.051087 0.054914 0.058335 0.061134 0.063995 0.065628 0.045666 0.043682 0.042894 0.04175 0.039737 0.03958 0.038958 
0.011152 0.020407 0.026315 0.031847 0.036907 0.040754 0.045031 0.04832 0.037025 0.035141 0.035023 0.033803 0.032392 0.032103 0.031821 
-0.013622 -0.005277 9.9e-05 0.005699 0.01169 0.016558 0.021032 0.027297 0.025246 0.024282 0.024231 0.023642 0.022687 0.022635 0.022733 
-0.036966 -0.029376 -0.024354 -0.019995 -0.013795 -0.008787 -0.004074 0.002839 0.010144 0.010554 0.01154 0.011943 0.010626 0.0112 0.011527 
-0.05773 -0.0513 -0.046668 -0.042813 -0.037791 -0.032899 -0.028062 -0.021531 -0.005138 -0.003979 -0.002683 -0.002052 -0.002281 -0.001894 -0.001005 
-0.073136 -0.068655 -0.065232 -0.062081 -0.05845 -0.054278 -0.049549 -0.043874 -0.020057 -0.018933 -0.01702 -0.016556 -0.015765 -0.014815 -0.013787 
-0.082044 -0.079575 -0.077712 -0.076158 -0.073309 -0.070418 -0.066803 -0.06257 -0.033852 -0.031984 -0.029186 -0.028446 -0.027479 -0.025844 -0.025264 
-0.080177 -0.081459 -0.081508 -0.081843 -0.080705 -0.079197 -0.077252 -0.074588 -0.042945 -0.040379 -0.037977 -0.036711 -0.035278 -0.034271 -0.033416 
-0.072494 -0.076246 -0.077921 -0.079719 -0.08037 -0.080345 -0.08009 -0.078887 -0.048436 -0.046028 -0.043821 -0.042718 -0.041378 -0.040419 -0.039132 
-0.060357 -0.064846 -0.068227 -0.071 -0.072858 -0.074188 -0.075663 -0.075802 -0.049751 -0.047526 -0.045907 -0.044556 -0.043746 -0.042489 -0.041533 
-0.036925 -0.04412 -0.049136 -0.053771 -0.057496 -0.060488 -0.063143 -0.065212 -0.045091 -0.043068 -0.042092 -0.04044 -0.039359 -0.039005 -0.038509 
-0.010163 -0.018785 -0.024407 -0.030378 -0.035361 -0.039835 -0.043761 -0.04786 -0.036712 -0.035114 -0.034277 -0.033682 -0.032056 -0.032104 -0.031795 
0.011594 0.004198 -0.00137 -0.006397 -0.011317 -0.016251 -0.020996 -0.026878 -0.025338 -0.024392 -0.024902 -0.024449 -0.023292 -0.023118 -0.022984 
0.035518 0.028323 0.022738 0.018419 0.012859 0.008159 0.003446 -0.00289 -0.010829 -0.01032 -0.012025 -0.011499 -0.01105 -0.011408 -0.011494 
0.058552 0.052022 0.047033 0.042873 0.037223 0.032705 0.027973 0.021858 0.004887 0.004746 0.00277 0.002292 0.002595 0.001863 0.001424 
0.072733 0.068502 0.065474 0.062267 0.058228 0.054035 0.049705 0.043271 0.020136 0.018587 0.016555 0.015919 0.015757 0.014757 0.013951 
0.081437 0.079569 0.077917 0.076236 0.073158 0.070195 0.066861 0.062039 0.033547 0.031324 0.029367 0.028252 0.027446 0.026284 0.025328 
0.080996 0.082094 0.082122 0.08236 0.080749 0.079633 0.077391 0.07453 0.04273 0.040624 0.038517 0.036775 0.035519 0.034631 0.033741 
0.071724 0.075132 0.077571 0.079179 0.080221 0.080807 0.079936 0.078132 0.047863 0.045628 0.043526 0.042233 0.040729 0.039485 0.038681 
0.060133 0.06462 0.067325 0.070551 0.072741 0.074212 0.075639 0.076196 0.050277 0.047703 0.045895 0.04453 0.042967 0.041966 0.040765 
0.039007 0.046018 0.050059 0.054714 0.057962 0.060662 0.063849 0.066511 0.046817 0.044103 0.04318 0.041869 0.040241 0.039971 0.038856 
0.011251 0.020049 0.02636 0.03124 0.036252 0.040616 0.044399 0.04876 0.037096 0.03536 0.0352 0.034594 0.033389 0.032838 0.032539 
-0.012774 -0.005155 0.000544 0.006071 0.011584 0.016364 0.021288 0.027307 0.02518 0.024381 0.024667 0.024089 0.023347 0.023175 0.023148 
-0.036439 -0.029397 -0.024239 -0.019023 -0.013358 -0.008342 -0.003269 0.003267 0.01123 0.010753 0.012073 0.011717 0.011174 0.011398 0.012064 
-0.057333 -0.051193 -0.046448 -0.042342 -0.036946 -0.032337 -0.028105 -0.021658 -0.004865 -0.004015 -0.002344 -0.001668 -0.001714 -0.00163 -0.00049 
-0.071974 -0.068271 -0.064866 -0.061579 -0.057273 -0.053799 -0.049805 -0.044395 -0.020654 -0.018839 -0.01703 -0.015984 -0.015436 -0.014476 -0.013914 
-0.08207 -0.080004 -0.077814 -0.076346 -0.073128 -0.070137 -0.067015 -0.062915 -0.03429 -0.032376 -0.030157 -0.028994 -0.028038 -0.026646 -0.025726 
-0.081653 -0.082532 -0.082742 -0.082913 -0.081417 -0.080072 -0.078104 -0.074708 -0.043915 -0.041329 -0.03942 -0.037746 -0.036708 -0.035694 -0.034297 
-0.072884 -0.076224 -0.078496 -0.080282 -0.080846 -0.081229 -0.080735 -0.078909 -0.049042 -0.046369 -0.044553 -0.043046 -0.04171 -0.040871 -0.039694 
-0.060378 -0.064342 -0.067737 -0.071067 -0.073378 -0.074781 -0.075865 -0.076496 -0.049995 -0.047769 -0.046259 -0.044895 -0.043297 -0.042451 -0.041601 
-0.036971 -0.044261 -0.049527 -0.05409 -0.057769 -0.06122 -0.063391 -0.066031 -0.045524 -0.043437 -0.042625 -0.041372 -0.039986 -0.039015 -0.038932 
-0.010313 -0.018938 -0.024943 -0.03049 -0.035357 -0.039934 -0.043855 -0.048263 -0.03673 -0.035183 -0.034548 -0.033768 -0.032682 -0.032382 -0.032492 
0.0108 0.003986 -0.001363 -0.006147 -0.011794 -0.016333 -0.021077 -0.026819 -0.025364 -0.024582 -0.024438 -0.023806 -0.023204 -0.023564 -0.023428 
0.036355 0.028354 0.023164 0.018392 0.013047 0.00795 0.003495 -0.002696 -0.010711 -0.01075 -0.011472 -0.011544 -0.010762 -0.011127 -0.011258 
0.05928 0.052121 0.047556 0.04297 0.037966 0.032947 0.028218 0.0217 0.005029 0.004283 0.002908 0.002164 0.002992 0.002251 0.001735 
0.071899 0.068301 0.065057 0.062601 0.057826 0.054155 0.049861 0.044012 0.019913 0.018574 0.016833 0.016042 0.015681 0.014762 0.01394 
0.082165 0.080267 0.078146 0.076677 0.073113 0.070539 0.067283 0.062897 0.033783 0.031798 0.02961 0.028536 0.027469 0.026493 0.02574 
0.081813 0.082687 0.082951 0.08297 0.081865 0.080297 0.078212 0.074667 0.04356 0.041397 0.03876 0.037396 0.036254 0.035074 0.03424 
0.071294 0.074589 0.077519 0.079255 0.080421 0.080564 0.080341 0.079006 0.048694 0.04631 0.044173 0.042542 0.041251 0.040419 0.038954 
0.059763 0.06427 0.067821 0.070422 0.07227 0.073927 0.075011 0.076317 0.050041 0.047454 0.045992 0.044382 0.043098 0.042627 0.04132 
0.038608 0.045646 0.050178 0.054927 0.058004 0.061142 0.063425 0.065462 0.045901 0.043741 0.042658 0.041265 0.039825 0.039507 0.038927 
0.011539 0.019736 0.025867 0.031343 0.036562 0.040775 0.044899 0.048611 0.037095 0.035717 0.035198 0.034086 0.032297 0.032412 0.032097 
-0.012595 -0.004637 0.001287 0.006078 0.01208 0.016505 0.021127 0.027152 0.025168 0.024767 0.024706 0.024223 0.022931 0.023203 0.02311 
-0.037327 -0.029308 -0.023958 -0.01918 -0.013504 -0.008237 -0.003791 0.002577 0.010408 0.010376 0.011388 0.011302 0.011072 0.011218 0.011209 
-0.057867 -0.051609 -0.046932 -0.04303 -0.038186 -0.032829 -0.027958 -0.022064 -0.004922 -0.004995 -0.002921 -0.002855 -0.002846 -0.002211 -0.001741 
-0.07223 -0.068254 -0.065336 -0.062204 -0.058213 -0.054384 -0.049954 -0.044298 -0.019556 -0.018599 -0.016739 -0.016321 -0.015947 -0.014856 -0.01384 
-0.082658 -0.080155 -0.078824 -0.076647 -0.073471 -0.070721 -0.067355 -0.061733 -0.033412 -0.031044 -0.029259 -0.027995 -0.027242 -0.02604 -0.025415 
-0.081316 -0.082287 -0.0826 -0.083078 -0.081719 -0.080185 -0.078253 -0.074437 -0.043587 -0.040993 -0.038718 -0.036982 -0.036309 -0.034948 -0.034209 
-0.071608 -0.075235 -0.077326 -0.079753 -0.080453 -0.080702 -0.08069 -0.079949 -0.048749 -0.046383 -0.044316 -0.042947 -0.041583 -0.040657 -0.039623 
-0.059813 -0.064094 -0.067336 -0.070449 -0.072517 -0.074093 -0.075345 -0.075922 -0.049746 -0.047409 -0.04599 -0.044366 -0.042782 -0.042354 -0.041347 
-0.037255 -0.044573 -0.049696 -0.053968 -0.057581 -0.060639 -0.063183 -0.065385 -0.045551 -0.043332 -0.042616 -0.040761 -0.039443 -0.039012 -0.03822 
-0.010312 -0.019083 -0.025426 -0.03039 -0.035563 -0.039894 -0.043973 -0.048457 -0.036875 -0.034995 -0.034965 -0.033874 -0.032488 -0.032105 -0.032012 
0.011269 0.004172 -0.001462 -0.006095 -0.011634 -0.016251 -0.020917 -0.02643 -0.025247 -0.024381 -0.02464 -0.024111 -0.023424 -0.02332 -0.022949 
0.036276 0.028861 0.023263 0.018601 0.013231 0.008252 0.003591 -0.002971 -0.010701 -0.010643 -0.01148 -0.011401 -0.010987 -0.011432 -0.011282 
0.058774 0.05197 0.047209 0.042855 0.037752 0.032868 0.028093 0.021581 0.005306 0.00458 0.002865 0.00237 0.003033 0.002337 0.001332 
0.071533 0.067432 0.064589 0.061908 0.057776 0.053835 0.049607 0.044368 0.020492 0.018721 0.016574 0.016068 0.015783 0.01501 0.014104 
0.081444 0.07922 0.077194 0.076062 0.073005 0.069666 0.067002 0.061952 0.033192 0.031233 0.029098 0.028393 0.027503 0.026119 0.025361 
0.081464 0.08258 0.082775 0.082787 0.081104 0.079578 0.077898 0.07384 0.042804 0.040363 0.038586 0.036982 0.036282 0.034945 0.034137 
0.071419 0.075448 0.078317 0.080033 0.080354 0.081334 0.080448 0.078759 0.04853 0.045707 0.044389 0.042488 0.04105 0.040287 0.039819 
0.059902 0.064045 0.067893 0.070751 0.072964 0.074757 0.075709 0.076073 0.049603 0.047101 0.046002 0.044737 0.042919 0.041951 0.041429 
0.039018 0.04527 0.050311 0.054097 0.05774 0.060562 0.063476 0.066029 0.045868 0.043491 0.042584 0.041543 0.04012 0.039125 0.038481 
0.010518 0.0195 0.025283 0.030851 0.035651 0.040105 0.044252 0.048595 0.036922 0.035187 0.03526 0.033931 0.032671 0.031959 0.031488 
-0.013855 -0.005723 -0.00027 0.005258 0.011079 0.01613 0.020613 0.026726 0.024602 0.023798 0.024514 0.023646 0.022823 0.022538 0.022435 
-0.036501 -0.029427 -0.024117 -0.019931 -0.014119 -0.009155 -0.004246 0.002912 0.010376 0.010607 0.011181 0.011377 0.010694 0.011098 0.011502 
-0.057436 -0.051154 -0.046608 -0.04262 -0.037496 -0.033064 -0.028155 -0.022225 -0.005127 -0.004058 -0.002894 -0.00214 -0.002561 -0.001823 -0.001199 
-0.072473 -0.068339 -0.065262 -0.062041 -0.057584 -0.053737 -0.049871 -0.044118 -0.019713 -0.018432 -0.01658 -0.015844 -0.015726 -0.014413 -0.013644 
-0.082326 -0.080426 -0.078478 -0.076634 -0.073506 -0.070499 -0.067124 -0.061143 -0.032937 -0.03101 -0.028773 -0.02778 -0.027594 -0.026094 -0.024974 
-0.081037 -0.082396 -0.082665 -0.082806 -0.081333 -0.080114 -0.077909 -0.074279 -0.04313 -0.040407 -0.038516 -0.036699 -0.035746 -0.034641 -0.033614 
-0.071373 -0.074907 -0.07748 -0.07986 -0.080243 -0.080797 -0.080939 -0.079533 -0.048565 -0.046086 -0.044406 -0.042717 -0.041126 -0.039766 -0.038862 
-0.060146 -0.06421 -0.067343 -0.070371 -0.072683 -0.074364 -0.075994 -0.076469 -0.049921 -0.047814 -0.045754 -0.04503 -0.043285 -0.042247 -0.041349 
-0.037223 -0.044467 -0.049309 -0.05371 -0.05765 -0.060523 -0.063304 -0.065944 -0.045716 -0.043243 -0.042532 -0.04152 -0.039359 -0.039376 -0.038939 
-0.009963 -0.018703 -0.024794 -0.030584 -0.035646 -0.039782 -0.043975 -0.048021 -0.036809 -0.035168 -0.035173 -0.033974 -0.032438 -0.032414 -0.032171 
0.010918 0.003696 -0.00121 -0.00634 -0.011574 -0.016241 -0.021028 -0.026863 -0.025392 -0.0248 -0.025195 -0.02465 -0.023682 -0.023326 -0.023366 
0.036975 0.029 0.023769 0.018795 0.013309 0.008574 0.004036 -0.002802 -0.010691 -0.010032 -0.011761 -0.01159 -0.010589 -0.011135 -0.011463 
0.059511 0.052824 0.04769 0.043387 0.038043 0.03338 0.028868 0.022143 0.005383 0.004764 0.003709 0.002886 0.00311 0.001926 0.001697 
0.07153 0.067997 0.064815 0.062516 0.058413 0.054363 0.050047 0.043689 0.020228 0.018714 0.017103 0.016026 0.015593 0.01462 0.013682 
0.082104 0.079841 0.077629 0.07654 0.073272 0.070222 0.067063 0.062237 0.033408 0.031866 0.029233 0.028452 0.027792 0.026546 0.025256 
0.081662 0.082344 0.082569 0.082778 0.081064 0.079558 0.077948 0.074564 0.04344 0.040654 0.03903 0.037561 0.036517 0.035342 0.034301 
0.071337 0.074837 0.077688 0.07951 0.080307 0.080473 0.080533 0.079053 0.048923 0.046031 0.044109 0.042804 0.041449 0.040726 0.039428 
0.060116 0.064903 0.068035 0.070613 0.072984 0.074399 0.075701 0.076474 0.04982 0.047536 0.045975 0.044699 0.043119 0.042445 0.041605 
0.039 0.045883 0.050878 0.054557 0.05838 0.061337 0.063528 0.065303 0.045629 0.043394 0.042772 0.041362 0.039514 0.039295 0.039016 
0.010929 0.019504 0.025961 0.031449 0.036418 0.040844 0.044739 0.048236 0.036531 0.034988 0.034415 0.033663 0.032115 0.032043 0.031935 
-0.013374 -0.004672 0.000535 0.006155 0.01137 0.016544 0.021556 0.027163 0.024894 0.023586 0.024233 0.023482 0.02263 0.022342 0.022598 
-0.036697 -0.029073 -0.023962 -0.019228 -0.014005 -0.008603 -0.003909 0.002993 0.011017 0.010388 0.011579 0.011343 0.010558 0.01097 0.011024 
-0.058095 -0.051741 -0.047243 -0.04269 -0.037847 -0.033165 -0.028438 -0.021291 -0.005254 -0.003836 -0.003011 -0.002325 -0.002623 -0.001767 -0.001726 
-0.073061 -0.068366 -0.065703 -0.062343 -0.057857 -0.054523 -0.050168 -0.044014 -0.020858 -0.01874 -0.01724 -0.016176 -0.015759 -0.015098 -0.014403 
-0.082235 -0.079998 -0.078011 -0.076498 -0.07327 -0.070606 -0.067819 -0.062859 -0.033914 -0.032141 -0.029673 -0.028708 -0.027893 -0.02696 -0.025899 
-0.080952 -0.082332 -0.082286 -0.082571 -0.081258 -0.079662 -0.078077 -0.074905 -0.043381 -0.041134 -0.038793 -0.038071 -0.036471 -0.035233 -0.034197 
-0.071748 -0.076014 -0.078045 -0.08009 -0.080111 -0.080761 -0.080073 -0.078633 -0.048653 -0.045899 -0.044267 -0.042869 -0.041598 -0.040286 -0.039252 
-0.060295 -0.065092 -0.068014 -0.070811 -0.07275 -0.074763 -0.075304 -0.075616 -0.049798 -0.04737 -0.045622 -0.044256 -0.043262 -0.042118 -0.041113 
-0.037157 -0.044218 -0.049456 -0.05405 -0.057747 -0.060929 -0.063093 -0.065986 -0.045455 -0.043372 -0.042244 -0.041344 -0.039437 -0.038983 -0.038422 
-0.009618 -0.018262 -0.024535 -0.030299 -0.035254 -0.039785 -0.043901 -0.04846 -0.03695 -0.034676 -0.034889 -0.033791 -0.032262 -0.032219 -0.031975 
0.010859 0.003837 -0.001622 -0.006036 -0.011568 -0.01612 -0.021312 -0.026769 -0.025519 -0.02434 -0.0248 -0.024133 -0.02346 -0.023412 -0.023263 
0.036361 0.02879 0.023101 0.018516 0.01316 0.008325 0.00316 -0.003111 -0.010483 -0.011103 -0.011885 -0.011696 -0.011091 -0.011527 -0.011987 
0.059711 0.052671 0.04803 0.043518 0.037775 0.033135 0.028025 0.021889 0.005381 0.004425 0.003188 0.002749 0.00275 0.002045 0.001157 
0.07151 0.067565 0.064819 0.062143 0.057746 0.054255 0.049714 0.044677 0.020512 0.018969 0.017494 0.016428 0.015827 0.015295 0.014283 
0.081323 0.07888 0.077236 0.075464 0.073136 0.069982 0.066847 0.062689 0.033991 0.031347 0.029528 0.028469 0.028002 0.02692 0.025483 
0.080893 0.081692 0.082348 0.082382 0.080693 0.079132 0.077558 0.07398 0.043055 0.040462 0.038452 0.037157 0.036208 0.034791 0.033607 
0.070459 0.074591 0.076913 0.07922 0.079413 0.079928 0.08019 0.078365 0.048327 0.045893 0.043695 0.042443 0.04095 0.039867 0.039193 
0.059954 0.06484 0.067395 0.070514 0.072681 0.074158 0.075661 0.075918 0.049808 0.047325 0.045797 0.044636 0.043208 0.04229 0.041557 
0.039013 0.046373 0.05062 0.054687 0.05812 0.061212 0.063726 0.065263 0.045866 0.043891 0.042999 0.041838 0.039956 0.039423 0.038938 
0.011049 0.019839 0.025924 0.030967 0.036351 0.040829 0.044992 0.048435 0.037465 0.035871 0.035042 0.03447 0.032855 0.032615 0.032409 
-0.012463 -0.005119 0.000803 0.005733 0.011577 0.016976 0.021587 0.027483 0.025393 0.024284 0.024649 0.02419 0.0236 0.023396 0.023588 
-0.036533 -0.029453 -0.023971 -0.019442 -0.014443 -0.008666 -0.003879 0.002825 0.010386 0.010267 0.011613 0.011431 0.010999 0.011412 0.012156 
-0.057816 -0.051673 -0.046885 -0.042833 -0.038045 -0.033359 -0.028239 -0.022169 -0.005315 -0.004532 -0.003222 -0.002484 -0.002858 -0.0015 -0.00088 
-0.071816 -0.067776 -0.064899 -0.061919 -0.057641 -0.054039 -0.04995 -0.044379 -0.020271 -0.018586 -0.01718 -0.016142 -0.01598 -0.0146 -0.013896 
-0.081752 -0.079659 -0.078049 -0.076301 -0.073023 -0.070402 -0.067327 -0.062503 -0.033601 -0.031385 -0.029558 -0.028322 -0.027451 -0.026616 -0.025478 
-0.081175 -0.08248 -0.082487 -0.082629 -0.080944 -0.079527 -0.077762 -0.074392 -0.043175 -0.040686 -0.0386 -0.037113 -0.035733 -0.034646 -0.033783 
-0.072253 -0.075476 -0.077904 -0.07983 -0.080615 -0.080382 -0.080343 -0.078894 -0.048524 -0.045813 -0.044138 -0.042759 -0.041027 -0.039851 -0.039315 
-0.060271 -0.064104 -0.067747 -0.070331 -0.072901 -0.074529 -0.075674 -0.076397 -0.049985 -0.047746 -0.04625 -0.044923 -0.043062 -0.042334 -0.041434 
-0.036324 -0.043482 -0.048693 -0.052765 -0.056824 -0.060288 -0.063042 -0.06599 -0.045455 -0.043461 -0.04243 -0.041173 -0.039838 -0.039256 -0.038341 
-0.010106 -0.018772 -0.024569 -0.029738 -0.035034 -0.039213 -0.043571 -0.047881 -0.036446 -0.034613 -0.03459 -0.033657 -0.032725 -0.032687 -0.032119 
0.010163 0.002782 -0.001988 -0.006769 -0.011958 -0.016396 -0.02117 -0.02603 -0.025289 -0.024211 -0.024806 -0.023974 -0.023465 -0.023955 -0.023519 
0.03674 0.028726 0.023531 0.018541 0.013029 0.007769 0.003368 -0.002825 -0.01041 -0.010014 -0.011587 -0.01094 -0.011168 -0.011568 -0.011721 
0.058743 0.052193 0.047586 0.043172 0.037719 0.032515 0.027929 0.021663 0.005535 0.004805 0.002919 0.002462 0.002454 0.001693 0.00105 
0.070635 0.067254 0.064415 0.061527 0.057594 0.053726 0.049058 0.044489 0.019725 0.01815 0.01671 0.015501 0.015838 0.014575 0.013684 
0.082229 0.079642 0.077849 0.076014 0.073095 0.070125 0.066515 0.062276 0.033173 0.031256 0.029656 0.028271 0.027827 0.026732 0.02561 
0.081581 0.082096 0.082426 0.08237 0.081232 0.079719 0.077742 0.07413 0.043621 0.040865 0.039179 0.037213 0.036304 0.035122 0.03418 
0.071086 0.075018 0.076972 0.078884 0.079909 0.080337 0.080184 0.07906 0.048652 0.046269 0.044613 0.042757 0.041772 0.040249 0.03936 
0.060381 0.064873 0.067663 0.070886 0.072711 0.074266 0.075097 0.076285 0.04953 0.047556 0.046424 0.044924 0.043282 0.042468 0.041709 
0.03865 0.045487 0.050296 0.054713 0.058233 0.061185 0.063221 0.065877 0.046153 0.043211 0.043087 0.041135 0.039853 0.039677 0.038996 
0.010607 0.019351 0.025552 0.030605 0.036039 0.040578 0.044568 0.048678 0.037055 0.034909 0.03505 0.033247 0.032745 0.032191 0.03195 
-0.013208 -0.005126 0.000737 0.005714 0.011555 0.01649 0.021286 0.026904 0.024698 0.02388 0.024361 0.023607 0.022438 0.022416 0.022921 
-0.03643 -0.028865 -0.023739 -0.018897 -0.013198 -0.008729 -0.00356 0.002662 0.010753 0.010255 0.011607 0.011812 0.010642 0.011604 0.011633 
-0.057177 -0.05077 -0.046565 -0.042377 -0.037323 -0.032866 -0.027817 -0.021671 -0.005197 -0.004086 -0.002803 -0.001993 -0.002183 -0.001263 -0.001323 
-0.072351 -0.06796 -0.06494 -0.062294 -0.057685 -0.053693 -0.049495 -0.043771 -0.020465 -0.01843 -0.017146 -0.016177 -0.016131 -0.01505 -0.014603 
-0.081804 -0.079903 -0.078182 -0.076683 -0.072941 -0.070529 -0.066882 -0.062373 -0.033942 -0.032075 -0.029584 -0.028403 -0.028309 -0.026801 -0.026291 
-0.081219 -0.082152 -0.082598 -0.082398 -0.081149 -0.080145 -0.077864 -0.075133 -0.044356 -0.041512 -0.039061 -0.037488 -0.036689 -0.035527 -0.034266 
-0.07273 -0.075757 -0.077846 -0.080079 -0.08046 -0.080932 -0.0805 -0.080045 -0.049411 -0.046487 -0.045115 -0.043401 -0.041711 -0.041003 -0.039726 
-0.059635 -0.064461 -0.067487 -0.071159 -0.072629 -0.07432 -0.075237 -0.076852 -0.050066 -0.04792 -0.046508 -0.044964 -0.043546 -0.0426 -0.041985 
-0.036926 -0.044201 -0.049338 -0.053421 -0.057397 -0.060343 -0.062837 -0.065387 -0.045589 -0.043574 -0.042207 -0.041042 -0.039938 -0.039007 -0.038418 
-0.010566 -0.019025 -0.024838 -0.029907 -0.035371 -0.03993 -0.043724 -0.0476 -0.036255 -0.034893 -0.034435 -0.033391 -0.031748 -0.031763 -0.031712 
0.011556 0.004012 -0.000901 -0.006013 -0.011674 -0.016299 -0.020835 -0.026106 -0.024468 -0.023871 -0.024341 -0.02374 -0.022483 -0.023105 -0.023076 
0.036454 0.028492 0.023384 0.018844 0.012877 0.008302 0.003293 -0.002092 -0.010077 -0.010118 -0.011279 -0.011194 -0.010831 -0.011079 -0.011172 
0.058886 0.051577 0.047243 0.042847 0.03735 0.0328 0.028083 0.021457 0.005159 0.00435 0.002813 0.002754 0.002877 0.002445 0.001402 
0.071752 0.067959 0.065023 0.062182 0.057694 0.054037 0.050187 0.043099 0.019736 0.018422 0.016782 0.015702 0.015827 0.014567 0.014054 
0.081261 0.079377 0.077342 0.076319 0.073014 0.06979 0.066685 0.061864 0.033397 0.03127 0.028927 0.02776 0.027236 0.026416 0.025775 
0.08146 0.081965 0.082567 0.082367 0.080938 0.079684 0.0774 0.073716 0.042904 0.040392 0.037523 0.03677 0.035573 0.034852 0.033351 
0.072261 0.075809 0.078141 0.079787 0.080109 0.081232 0.08055 0.078468 0.048211 0.045848 0.043916 0.042217 0.040994 0.039542 0.038794 
0.060522 0.065097 0.067789 0.071345 0.072725 0.074654 0.075774 0.076728 0.050197 0.04786 0.046282 0.045046 0.043498 0.042491 0.041786 
0.038697 0.045385 0.050729 0.054654 0.058192 0.061263 0.064013 0.066746 0.046466 0.044555 0.043106 0.042239 0.040897 0.040048 0.039177 
0.010878 0.019262 0.02584 0.030617 0.03625 0.040697 0.044677 0.049793 0.037742 0.036166 0.035858 0.034538 0.033302 0.032893 0.032797 
-0.013388 -0.005836 -0.000558 0.005249 0.010782 0.016218 0.020277 0.027466 0.025369 0.024618 0.024523 0.024313 0.0229 0.023174 0.023406 
-0.037393 -0.03002 -0.02504 -0.020033 -0.014487 -0.009263 -0.004638 0.002261 0.01025 0.010812 0.010987 0.011223 0.010858 0.011134 0.01129 
-0.05811 -0.051576 -0.047329 -0.043326 -0.038163 -0.033409 -0.028404 -0.022141 -0.005215 -0.004332 -0.002872 -0.002666 -0.002637 -0.001524 -0.001162 
-0.072032 -0.068192 -0.065179 -0.061998 -0.058205 -0.053878 -0.050103 -0.044429 -0.019946 -0.01886 -0.016752 -0.016038 -0.015778 -0.014864 -0.013731 
-0.081553 -0.079528 -0.077721 -0.076131 -0.072822 -0.070567 -0.067181 -0.062429 -0.032892 -0.031181 -0.029241 -0.028261 -0.027167 -0.026417 -0.025256 
-0.08175 -0.082075 -0.082389 -0.082535 -0.080884 -0.079929 -0.077717 -0.074184 -0.043194 -0.040903 -0.038893 -0.037353 -0.036121 -0.034746 -0.033653 
-0.072835 -0.075954 -0.07802 -0.079914 -0.080736 -0.080557 -0.080937 -0.079458 -0.049422 -0.046923 -0.04462 -0.042944 -0.041603 -0.040953 -0.039354 
-0.059684 -0.064565 -0.068105 -0.07105 -0.072792 -0.07501 -0.076219 -0.07694 -0.050147 -0.047772 -0.046222 -0.044758 -0.043429 -0.042704 -0.041846 
-0.03693 -0.044479 -0.050001 -0.054078 -0.057524 -0.061162 -0.063625 -0.066162 -0.045725 -0.043523 -0.042559 -0.041735 -0.039934 -0.039322 -0.039194 
-0.010581 -0.018757 -0.024778 -0.030278 -0.035717 -0.039901 -0.044045 -0.048666 -0.036915 -0.035414 -0.034437 -0.034616 -0.032422 -0.032423 -0.032293 
0.010976 0.004231 -0.000821 -0.00597 -0.011092 -0.016484 -0.020589 -0.02674 -0.025159 -0.024233 -0.024396 -0.02427 -0.023414 -0.023078 -0.023101 
0.036473 0.029036 0.023546 0.019017 0.013943 0.008556 0.003812 -0.002472 -0.010494 -0.010309 -0.01133 -0.010862 -0.011136 -0.011288 -0.01158 
0.058922 0.052732 0.047389 0.043218 0.038007 0.03331 0.028193 0.021995 0.005289 0.004345 0.002933 0.002869 0.002641 0.002288 0.001225 
0.071485 0.068425 0.065149 0.062197 0.05828 0.054016 0.050122 0.044225 0.01992 0.018581 0.016571 0.015867 0.015693 0.01502 0.013892 
0.082205 0.080244 0.078488 0.076582 0.073311 0.07063 0.067464 0.062715 0.034113 0.031956 0.030104 0.028657 0.028066 0.026471 0.025727 
0.081998 0.082533 0.082947 0.083047 0.081268 0.080392 0.078092 0.075177 0.04417 0.041542 0.039507 0.037975 0.036524 0.035468 0.034463 
0.071404 0.074879 0.077089 0.079417 0.080252 0.080772 0.080389 0.079518 0.048362 0.046393 0.044494 0.042789 0.041279 0.04046 0.039855 
0.059955 0.06493 0.067656 0.070521 0.072475 0.074251 0.075714 0.076318 0.049726 0.047346 0.046354 0.044643 0.043612 0.042433 0.042124 
0.037988 0.045932 0.050673 0.054555 0.058157 0.060837 0.063547 0.065983 0.046152 0.0434 0.042714 0.041909 0.040313 0.039711 0.038944 
0.010724 0.019548 0.025589 0.030607 0.036428 0.040402 0.044331 0.048363 0.036398 0.034832 0.034529 0.033915 0.032148 0.032152 0.03161 
-0.011522 -0.004647 0.000702 0.00577 0.011483 0.016342 0.021221 0.025612 0.024025 0.023661 0.023528 0.023327 0.022147 0.022584 0.022332 
-0.036104 -0.0292 -0.024099 -0.018849 -0.013886 -0.008812 -0.003775 0.001893 0.010319 0.010381 0.0109 0.011467 0.01028 0.010844 0.010659 
-0.05824 -0.052032 -0.047445 -0.042958 -0.037787 -0.03297 -0.0279 -0.021325 -0.005173 -0.004612 -0.002693 -0.002244 -0.002846 -0.002376 -0.001847 
-0.07258 -0.068639 -0.06526 -0.062496 -0.058031 -0.054315 -0.049681 -0.044013 -0.020574 -0.01927 -0.017185 -0.016541 -0.016054 -0.015067 -0.013942 
-0.082219 -0.080109 -0.077973 -0.076577 -0.07356 -0.070732 -0.067236 -0.06275 -0.033646 -0.031948 -0.029875 -0.028685 -0.027726 -0.02638 -0.025314 
-0.08104 -0.082187 -0.082129 -0.082399 -0.081051 -0.079409 -0.07749 -0.07479 -0.043346 -0.041142 -0.038926 -0.03745 -0.035908 -0.035123 -0.033981 
-0.072188 -0.075824 -0.077637 -0.079374 -0.080398 -0.080244 -0.080571 -0.079099 -0.04884 -0.046266 -0.044337 -0.042809 -0.041157 -0.040707 -0.039279 
-0.059859 -0.064742 -0.067701 -0.070554 -0.072811 -0.074167 -0.076109 -0.075866 -0.050105 -0.047776 -0.046052 -0.04452 -0.04345 -0.04257 -0.041463 
-0.036346 -0.044098 -0.049005 -0.053452 -0.057052 -0.060448 -0.063138 -0.06562 -0.045968 -0.043801 -0.043083 -0.04161 -0.04018 -0.039599 -0.038966 
-0.009994 -0.018945 -0.024487 -0.029716 -0.035452 -0.039669 -0.043664 -0.047618 -0.036404 -0.034693 -0.034743 -0.03385 -0.032357 -0.032415 -0.031791 
0.011231 0.003669 -0.001185 -0.0059 -0.011366 -0.016037 -0.021057 -0.026058 -0.024486 -0.023575 -0.023894 -0.023536 -0.022908 -0.022863 -0.022776 
0.035962 0.02865 0.023224 0.018748 0.013297 0.008081 0.003133 -0.003157 -0.010405 -0.010215 -0.01148 -0.011485 -0.010859 -0.011126 -0.011886 
0.058064 0.051651 0.047313 0.043016 0.037098 0.032673 0.027808 0.022105 0.005467 0.004536 0.003095 0.00255 0.002826 0.002326 0.001381 
0.071908 0.067814 0.065218 0.061923 0.058009 0.054087 0.049809 0.044288 0.020667 0.018991 0.01742 0.016433 0.016048 0.015479 0.014274 
0.082193 0.079854 0.077692 0.075514 0.072969 0.070146 0.067032 0.062048 0.034034 0.032249 0.03013 0.02868 0.028223 0.026878 0.025592 
0.080998 0.081743 0.082269 0.08185 0.080689 0.079774 0.077383 0.075022 0.043304 0.041159 0.039121 0.037518 0.036401 0.034928 0.034472 
0.07136 0.074722 0.077412 0.079086 0.08021 0.080159 0.07976 0.078786 0.048467 0.046324 0.044135 0.042544 0.041161 0.040128 0.039829 
0.059794 0.064252 0.067271 0.070185 0.072009 0.073511 0.075469 0.075491 0.049892 0.047877 0.046429 0.044654 0.043453 0.042517 0.041569 
0.037329 0.044687 0.04959 0.054119 0.057241 0.060793 0.063342 0.065228 0.045377 0.043221 0.042546 0.041258 0.039997 0.039348 0.038482 
0.010232 0.019152 0.025135 0.030578 0.035836 0.040228 0.044106 0.047269 0.036325 0.034674 0.03395 0.033116 0.032064 0.032168 0.031632 
-0.012463 -0.00475 0.000686 0.005488 0.01143 0.016114 0.021282 0.02598 0.024552 0.023506 0.023926 0.023373 0.022345 0.022739 0.022615 
-0.035686 -0.028517 -0.023397 -0.018778 -0.01284 -0.008021 -0.003267 0.002247 0.010376 0.010089 0.011099 0.011303 0.010773 0.010786 0.011325 
-0.057166 -0.050752 -0.046335 -0.042019 -0.036563 -0.032226 -0.027331 -0.021479 -0.004997 -0.003997 -0.002722 -0.002622 -0.002238 -0.001615 -0.001071 
-0.07279 -0.068082 -0.065123 -0.061722 -0.057439 -0.05383 -0.049253 -0.042682 -0.020302 -0.018838 -0.016733 -0.016218 -0.015757 -0.014314 -0.014045 
-0.081848 -0.079607 -0.078247 -0.076243 -0.073185 -0.070281 -0.066963 -0.061753 -0.033311 -0.031889 -0.029841 -0.028031 -0.027535 -0.026475 -0.026069 
-0.08054 -0.08173 -0.082281 -0.082585 -0.081435 -0.080112 -0.077698 -0.074769 -0.043248 -0.041205 -0.038743 -0.037182 -0.036163 -0.035227 -0.034367 
-0.072232 -0.075413 -0.078254 -0.079711 -0.080954 -0.08133 -0.080681 -0.079399 -0.049578 -0.046758 -0.04431 -0.043055 -0.041698 -0.040698 -0.039409 
-0.059789 -0.064087 -0.068254 -0.07034 -0.072802 -0.074647 -0.075742 -0.076314 -0.050411 -0.047519 -0.046312 -0.044742 -0.043331 -0.042753 -0.041539 
-0.036697 -0.043759 -0.049016 -0.053646 -0.057087 -0.060478 -0.063014 -0.0652 -0.045641 -0.043348 -0.04249 -0.041242 -0.040019 -0.039517 -0.038614 
-0.010461 -0.018615 -0.0246 -0.030391 -0.035375 -0.039391 -0.043799 -0.047774 -0.036348 -0.034911 -0.034475 -0.033637 -0.032577 -0.032245 -0.031663 
0.01099 0.003766 -0.001265 -0.006009 -0.011457 -0.016097 -0.020728 -0.026379 -0.024178 -0.023873 -0.024711 -0.024053 -0.023022 -0.023074 -0.022994 
0.036514 0.028695 0.023612 0.018691 0.013248 0.008079 0.003797 -0.002509 -0.010067 -0.010364 -0.011694 -0.01162 -0.010951 -0.011042 -0.01179 
0.058926 0.052388 0.047424 0.042852 0.037575 0.032735 0.027937 0.021844 0.00541 0.005063 0.003447 0.002644 0.002943 0.002202 0.001135 
0.071512 0.067982 0.065118 0.062244 0.058067 0.054053 0.049402 0.044283 0.020387 0.01927 0.016894 0.016293 0.016053 0.014561 0.013975 
0.081674 0.079451 0.07787 0.076064 0.072967 0.070433 0.066693 0.06254 0.033466 0.031735 0.029342 0.028566 0.02774 0.026595 0.025673 
0.081522 0.08183 0.082168 0.082051 0.080889 0.079464 0.077543 0.074425 0.043452 0.041015 0.03893 0.037363 0.036367 0.035368 0.034229 
0.071582 0.074445 0.077063 0.079005 0.079875 0.08023 0.079879 0.078801 0.049201 0.045839 0.044057 0.042985 0.041393 0.040215 0.039586 
0.059308 0.063941 0.067231 0.070233 0.071882 0.074224 0.074796 0.076119 0.050319 0.047885 0.046455 0.044782 0.043373 0.042498 0.041821 
0.037127 0.045017 0.049858 0.054205 0.05758 0.060262 0.06293 0.065991 0.046192 0.044391 0.043309 0.041295 0.04037 0.039849 0.039198 
0.01041 0.018805 0.02502 0.030667 0.035776 0.039711 0.044019 0.048414 0.036837 0.034953 0.034919 0.034506 0.032926 0.032801 0.032241 
-0.012823 -0.005991 -0.000119 0.005078 0.010959 0.015933 0.020521 0.025997 0.024095 0.023664 0.024276 0.02395 0.022798 0.022884 0.022948 
-0.036839 -0.029448 -0.024165 -0.019887 -0.013828 -0.008961 -0.004138 0.001783 0.009833 0.010326 0.011265 0.011195 0.010578 0.010973 0.011637 
-0.05767 -0.050947 -0.046587 -0.042537 -0.037687 -0.032578 -0.028008 -0.022032 -0.004905 -0.004172 -0.002586 -0.001538 -0.002201 -0.001318 -0.000924 
-0.072386 -0.068088 -0.06489 -0.061596 -0.057382 -0.053455 -0.049643 -0.043987 -0.019839 -0.018608 -0.016549 -0.015848 -0.015628 -0.014533 -0.013779 
-0.081573 -0.079445 -0.077967 -0.075911 -0.072741 -0.069844 -0.06691 -0.062619 -0.033721 -0.032041 -0.029547 -0.028556 -0.027927 -0.026361 -0.025547 
-0.080403 -0.081488 -0.082195 -0.081729 -0.081041 -0.079255 -0.077318 -0.07465 -0.043068 -0.040713 -0.038583 -0.036773 -0.036001 -0.034618 -0.03356 
-0.072216 -0.075821 -0.077878 -0.079557 -0.0801 -0.080554 -0.080099 -0.078356 -0.048481 -0.045957 -0.0441 -0.04262 -0.041418 -0.040654 -0.039043 
-0.059317 -0.064114 -0.067438 -0.070875 -0.072875 -0.074187 -0.075772 -0.076024 -0.050658 -0.048259 -0.046308 -0.044835 -0.043512 -0.042664 -0.041892 
-0.035482 -0.043067 -0.048183 -0.05296 -0.05724 -0.060095 -0.063285 -0.066499 -0.045854 -0.043934 -0.042757 -0.041337 -0.039687 -0.03933 -0.038889 
-0.009638 -0.018133 -0.024019 -0.02945 -0.034759 -0.039244 -0.0437 -0.048313 -0.03639 -0.034965 -0.034629 -0.034101 -0.032628 -0.032318 -0.032194 
0.010992 0.004414 -0.000894 -0.006073 -0.01141 -0.016011 -0.020865 -0.025978 -0.025346 -0.0242 -0.024574 -0.0244 -0.023602 -0.022926 -0.023407 
0.03625 0.028838 0.023451 0.018757 0.013589 0.00827 0.004011 -0.002167 -0.011043 -0.010907 -0.0118 -0.011943 -0.01113 -0.011733 -0.011611 
0.059051 0.05188 0.047016 0.04304 0.038045 0.033173 0.028725 0.022174 0.004759 0.00441 0.00297 0.002328 0.002693 0.001365 0.00128 
0.071961 0.067947 0.065338 0.062242 0.058021 0.054047 0.050087 0.044316 0.020003 0.018935 0.016805 0.016214 0.015738 0.01471 0.013937 
0.081694 0.079709 0.07829 0.07632 0.073404 0.069962 0.067447 0.062131 0.033458 0.031033 0.028887 0.02791 0.027307 0.025999 0.025395 
0.081195 0.082059 0.082507 0.082243 0.081056 0.079927 0.078221 0.074234 0.042909 0.040651 0.038312 0.037055 0.035726 0.034597 0.033646 
0.071513 0.074483 0.077242 0.07917 0.079964 0.080427 0.080547 0.079058 0.048682 0.046519 0.044169 0.042847 0.041114 0.040233 0.039076 
0.059661 0.064152 0.06714 0.070379 0.07265 0.073792 0.075609 0.076003 0.05034 0.047753 0.04622 0.044534 0.043403 0.042384 0.041785 
0.037846 0.045586 0.050409 0.054259 0.057946 0.060904 0.063258 0.065988 0.046027 0.043809 0.042785 0.04147 0.040277 0.03968 0.03912 
0.010387 0.019121 0.025376 0.030837 0.035839 0.040367 0.043978 0.048452 0.036891 0.035188 0.034733 0.033608 0.032522 0.032074 0.031681 
-0.01378 -0.005725 -0.000633 0.005144 0.010906 0.015986 0.020643 0.025896 0.024698 0.023742 0.023999 0.023144 0.022575 0.022179 0.022324 
-0.037172 -0.02969 -0.024314 -0.019696 -0.014119 -0.009103 -0.004157 0.002422 0.010033 0.0099 0.010565 0.010892 0.010528 0.011096 0.01136 
-0.057968 -0.051874 -0.047108 -0.042814 -0.038129 -0.033491 -0.02874 -0.022271 -0.00567 -0.00483 -0.003454 -0.002762 -0.002983 -0.001897 -0.001377 
-0.07296 -0.068262 -0.065616 -0.062255 -0.058366 -0.054605 -0.050393 -0.045082 -0.020653 -0.019172 -0.01702 -0.016699 -0.016216 -0.015311 -0.014758 
-0.0818 -0.079527 -0.077921 -0.076018 -0.073423 -0.070624 -0.066995 -0.062337 -0.033504 -0.031777 -0.029616 -0.028896 -0.027509 -0.026447 -0.025844 
-0.080971 -0.082034 -0.082287 -0.082195 -0.081171 -0.079713 -0.077763 -0.074224 -0.043084 -0.040387 -0.038432 -0.036843 -0.035916 -0.034418 -0.033742 
-0.072493 -0.075368 -0.077395 -0.079515 -0.079931 -0.080594 -0.080407 -0.079069 -0.048527 -0.046114 -0.043689 -0.042269 -0.041509 -0.040031 -0.039724 
-0.059722 -0.064055 -0.067351 -0.070386 -0.072298 -0.074022 -0.075127 -0.075784 -0.049353 -0.04753 -0.045491 -0.04457 -0.04305 -0.042166 -0.041524 
-0.036441 -0.044054 -0.049393 -0.053775 -0.057405 -0.060201 -0.063011 -0.064827 -0.04519 -0.042762 -0.042036 -0.040737 -0.039217 -0.038707 -0.038064 
-0.009596 -0.018249 -0.024039 -0.030044 -0.035266 -0.039825 -0.043639 -0.047905 -0.036535 -0.035101 -0.034587 -0.033522 -0.032208 -0.032329 -0.031845 
0.011328 0.00435 -0.000896 -0.00646 -0.011361 -0.016412 -0.020669 -0.027125 -0.025207 -0.024537 -0.024519 -0.024163 -0.023437 -0.02376 -0.023299 
0.036535 0.028753 0.023157 0.018237 0.013467 0.008325 0.003615 -0.002828 -0.010782 -0.010436 -0.011502 -0.011463 -0.01113 -0.01116 -0.011823 
0.059478 0.052457 0.04781 0.04356 0.037836 0.033112 0.028259 0.022338 0.005806 0.004642 0.00324 0.002808 0.003024 0.00225 0.001582 
0.071879 0.067925 0.065137 0.062341 0.058117 0.054367 0.049853 0.044909 0.020889 0.019461 0.017515 0.017127 0.016548 0.01539 0.014922 
0.08245 0.079788 0.077972 0.076158 0.073698 0.070777 0.067187 0.063089 0.033832 0.032036 0.029669 0.029299 0.028586 0.027301 0.026268 
0.082309 0.08278 0.083042 0.083023 0.081469 0.080229 0.078183 0.074761 0.043379 0.04102 0.038527 0.037495 0.036493 0.03521 0.0345 
0.07149 0.074825 0.077361 0.079632 0.080158 0.080712 0.080649 0.079089 0.04874 0.046458 0.044267 0.042863 0.041341 0.040577 0.039523 
0.059379 0.06392 0.067041 0.070171 0.072216 0.074402 0.07544 0.076063 0.050195 0.047329 0.046286 0.044673 0.043468 0.042381 0.041206 
0.037646 0.044943 0.04966 0.053794 0.057356 0.060869 0.063083 0.065439 0.046156 0.043712 0.042857 0.041521 0.039934 0.039453 0.038684 
0.010491 0.018747 0.025048 0.030556 0.035504 0.039924 0.043832 0.048503 0.037624 0.035839 0.035238 0.034369 0.032946 0.033232 0.03242 
-0.013428 -0.005708 -0.000195 0.00541 0.010376 0.015692 0.020074 0.02686 0.025156 0.024177 0.024643 0.023935 0.023632 0.023218 0.023248 
-0.036853 -0.029425 -0.024572 -0.019689 -0.014224 -0.00929 -0.00456 0.002112 0.010018 0.01073 0.011439 0.011349 0.011034 0.011215 0.011687 
-0.057653 -0.051741 -0.047006 -0.043126 -0.037459 -0.033242 -0.0284 -0.022255 -0.004884 -0.003916 -0.002656 -0.002064 -0.002521 -0.001491 -0.000935 
-0.073087 -0.068711 -0.065181 -0.062594 -0.057869 -0.054163 -0.05018 -0.044481 -0.020497 -0.019236 -0.017396 -0.016232 -0.016006 -0.015151 -0.014165 
-0.081825 -0.079432 -0.077899 -0.076395 -0.073041 -0.070452 -0.06739 -0.063523 -0.034869 -0.032391 -0.030429 -0.02932 -0.028175 -0.027054 -0.026302 
-0.08108 -0.082024 -0.082416 -0.082316 -0.081106 -0.079712 -0.077803 -0.07542 -0.044017 -0.04117 -0.038911 -0.038055 -0.036708 -0.035844 -0.03483 
-0.072486 -0.075951 -0.078133 -0.079712 -0.080721 -0.080864 -0.080471 -0.079382 -0.048966 -0.046251 -0.044497 -0.043003 -0.041892 -0.041171 -0.039775 
-0.058946 -0.063608 -0.067683 -0.070242 -0.072826 -0.074517 -0.075689 -0.076341 -0.050162 -0.047679 -0.046607 -0.044984 -0.043604 -0.042325 -0.041116 
-0.036566 -0.04396 -0.04899 -0.053371 -0.057138 -0.060495 -0.062976 -0.065163 -0.045737 -0.043464 -0.042656 -0.041519 -0.040294 -0.039472 -0.038477 
-0.01004 -0.019342 -0.024429 -0.030189 -0.034976 -0.039681 -0.043568 -0.047769 -0.036957 -0.035304 -0.034673 -0.034016 -0.03297 -0.032517 -0.032454 
0.011598 0.00425 -0.001417 -0.005952 -0.011534 -0.016168 -0.020996 -0.026733 -0.025433 -0.024826 -0.024794 -0.02452 -0.02356 -0.023226 -0.023305 
0.035908 0.029025 0.02317 0.018874 0.012952 0.00836 0.003419 -0.002494 -0.010489 -0.010931 -0.011692 -0.011658 -0.011532 -0.012133 -0.011693 
0.058654 0.05203 0.047743 0.043027 0.037854 0.033229 0.028421 0.022261 0.005361 0.003971 0.00311 0.002573 0.00235 0.001602 0.001024 
0.072073 0.068406 0.065717 0.062531 0.058324 0.054488 0.05064 0.044243 0.020108 0.01864 0.016956 0.016267 0.015789 0.015236 0.014085 
0.082209 0.080447 0.078558 0.077122 0.073507 0.070837 0.067683 0.062573 0.033698 0.031957 0.029654 0.028617 0.027652 0.026515 0.025661 
0.081292 0.082343 0.082563 0.082905 0.081472 0.080327 0.07821 0.074834 0.043111 0.040819 0.038806 0.037221 0.036132 0.034675 0.03414 
0.071677 0.074941 0.077572 0.079325 0.080345 0.08042 0.080638 0.07893 0.048547 0.046336 0.043955 0.042748 0.041226 0.039922 0.039901 
0.060641 0.064633 0.067959 0.070673 0.072804 0.074139 0.075483 0.076329 0.050482 0.047975 0.046274 0.044807 0.043575 0.0423 0.041794 
0.037925 0.045498 0.049639 0.054244 0.057784 0.06106 0.063601 0.066322 0.04609 0.04393 0.043296 0.041663 0.040715 0.039578 0.039025 
0.010524 0.019484 0.025193 0.030555 0.035905 0.040249 0.044477 0.048796 0.037294 0.035735 0.035477 0.034558 0.033014 0.033039 0.032511 
-0.012865 -0.005583 0.000569 0.005295 0.011623 0.01628 0.020705 0.026891 0.025595 0.023988 0.024617 0.024197 0.023045 0.023937 0.022891 
-0.037511 -0.029927 -0.024278 -0.019824 -0.014004 -0.009174 -0.004341 0.002105 0.010258 0.009971 0.010848 0.011634 0.010859 0.011449 0.011477 
-0.058501 -0.051826 -0.046817 -0.043059 -0.037887 -0.033678 -0.02881 -0.022502 -0.005465 -0.004532 -0.003288 -0.002233 -0.002641 -0.001947 -0.001297 
-0.072843 -0.068707 -0.065434 -0.062304 -0.057816 -0.054167 -0.050207 -0.044391 -0.020045 -0.019101 -0.01666 -0.016703 -0.015917 -0.014869 -0.014361 
-0.082361 -0.079716 -0.078687 -0.076512 -0.073829 -0.070621 -0.067213 -0.062831 -0.033773 -0.03201 -0.029425 -0.028948 -0.027555 -0.026394 -0.025625 
-0.081472 -0.081936 -0.08266 -0.082813 -0.081883 -0.080045 -0.078047 -0.074546 -0.043802 -0.041059 -0.039138 -0.03752 -0.036135 -0.03494 -0.034413 
-0.072718 -0.076201 -0.078239 -0.080604 -0.080893 -0.081218 -0.080925 -0.078941 -0.049134 -0.04628 -0.04455 -0.0429 -0.041781 -0.040674 -0.039885 
-0.060205 -0.064506 -0.067855 -0.071166 -0.072965 -0.074901 -0.076092 -0.076396 -0.050201 -0.047369 -0.046058 -0.044756 -0.043053 -0.042355 -0.041361 
-0.036601 -0.043693 -0.049343 -0.052997 -0.05731 -0.060169 -0.063142 -0.065401 -0.045525 -0.042728 -0.042366 -0.041189 -0.039226 -0.038812 -0.038542 
-0.010033 -0.018684 -0.024875 -0.029729 -0.035211 -0.039747 -0.043715 -0.047989 -0.036445 -0.034719 -0.034675 -0.033324 -0.032721 -0.031951 -0.032104 
0.011487 0.004173 -0.000846 -0.006156 -0.011078 -0.016277 -0.021029 -0.026894 -0.024844 -0.024495 -0.024992 -0.023804 -0.023273 -0.023136 -0.022999 
0.037305 0.02923 0.023847 0.019133 0.01369 0.008881 0.003624 -0.003102 -0.01074 -0.010538 -0.011806 -0.011501 -0.010607 -0.011692 -0.011514 
0.059476 0.052154 0.047706 0.043097 0.038093 0.032929 0.028336 0.021343 0.004957 0.00434 0.003079 0.002323 0.002696 0.00157 0.001145 
0.072442 0.068183 0.06533 0.062387 0.058241 0.054331 0.050429 0.044356 0.020853 0.019002 0.01701 0.015831 0.015909 0.014885 0.014119 
0.081858 0.079778 0.07758 0.076796 0.072958 0.070678 0.067245 0.06308 0.033617 0.031988 0.02946 0.028442 0.027748 0.026427 0.02554 
0.081167 0.082002 0.082362 0.082657 0.081084 0.079605 0.077491 0.074251 0.042619 0.040566 0.03852 0.037134 0.036022 0.034948 0.033828 
0.072231 0.075673 0.078078 0.079798 0.080248 0.080517 0.080576 0.078622 0.048936 0.04636 0.044102 0.042338 0.041174 0.04042 0.039406 
0.059613 0.064632 0.06795 0.070822 0.072606 0.074039 0.075469 0.076431 0.049794 0.047801 0.045998 0.044433 0.043145 0.042086 0.041568 
0.038625 0.045499 0.050875 0.05465 0.058407 0.061299 0.063637 0.065752 0.045515 0.043706 0.043018 0.041477 0.040475 0.039649 0.039267 
0.011435 0.019904 0.026356 0.031158 0.036251 0.041255 0.045438 0.048758 0.037375 0.035682 0.035458 0.034462 0.033282 0.03289 0.032368 
-0.014011 -0.006238 -0.000255 0.004948 0.010696 0.016157 0.021233 0.027241 0.024764 0.023822 0.024562 0.024037 0.023027 0.022857 0.022692 
-0.036398 -0.030072 -0.024833 -0.019959 -0.014203 -0.0092 -0.004252 0.002311 0.010192 0.010363 0.011702 0.011152 0.010666 0.011301 0.01159 
-0.05779 -0.051451 -0.047188 -0.043028 -0.037973 -0.033266 -0.028406 -0.022089 -0.00469 -0.004277 -0.002556 -0.002099 -0.002745 -0.002142 -0.001135 
-0.073437 -0.068993 -0.065757 -0.062718 -0.058361 -0.054274 -0.050397 -0.044223 -0.019737 -0.019336 -0.016695 -0.015592 -0.015797 -0.015191 -0.014032 
-0.081131 -0.079678 -0.07796 -0.076413 -0.072971 -0.070426 -0.067565 -0.062469 -0.033316 -0.031719 -0.029381 -0.028345 -0.02746 -0.025923 -0.025598 
-0.080481 -0.081062 -0.08178 -0.08185 -0.080664 -0.07956 -0.0777 -0.074291 -0.04333 -0.04089 -0.038964 -0.03738 -0.03641 -0.0349 -0.034183 
-0.072582 -0.075297 -0.077422 -0.079437 -0.080255 -0.080519 -0.080067 -0.078967 -0.048773 -0.046437 -0.044363 -0.042714 -0.041955 -0.040519 -0.039698 
-0.060347 -0.064525 -0.067526 -0.07087 -0.072658 -0.07448 -0.075525 -0.075933 -0.050322 -0.047884 -0.046411 -0.0449 -0.043363 -0.042201 -0.042054 
-0.036593 -0.043628 -0.049293 -0.053682 -0.05736 -0.060288 -0.063163 -0.065592 -0.046299 -0.043867 -0.042788 -0.04126 -0.039758 -0.039486 -0.038638 
-0.009481 -0.01824 -0.024339 -0.029909 -0.034652 -0.039337 -0.043244 -0.048402 -0.036222 -0.03486 -0.034339 -0.033631 -0.032685 -0.032389 -0.031753 
0.010753 0.00366 -0.000905 -0.005985 -0.010944 -0.016077 -0.020461 -0.025938 -0.024297 -0.023808 -0.024304 -0.024178 -0.022916 -0.023084 -0.023132 
0.036125 0.028713 0.022952 0.018585 0.012883 0.008345 0.00372 -0.002179 -0.010571 -0.010454 -0.011403 -0.011098 -0.01054 -0.011584 -0.011192 
0.058816 0.052108 0.046641 0.042703 0.037674 0.032573 0.028234 0.021575 0.005315 0.004268 0.002672 0.002683 0.002419 0.001584 0.001522 
0.071578 0.067916 0.064888 0.06213 0.057909 0.053815 0.049712 0.04448 0.02041 0.018682 0.016684 0.015865 0.015799 0.014878 0.014272 
0.082429 0.079914 0.078133 0.076563 0.07293 0.070328 0.067347 0.062461 0.033762 0.031807 0.02991 0.028667 0.028044 0.026914 0.025953 
0.081372 0.081856 0.082203 0.082776 0.081148 0.079825 0.078114 0.073897 0.043129 0.040908 0.038699 0.037491 0.035951 0.035371 0.033831 
0.071081 0.074917 0.077357 0.079383 0.079752 0.08057 0.079762 0.078678 0.048254 0.046289 0.044 0.042567 0.040882 0.040572 0.039239 
0.059582 0.064105 0.067653 0.070132 0.072296 0.074004 0.074745 0.075696 0.049911 0.047916 0.045943 0.044226 0.042984 0.042444 0.041466 
0.037748 0.044504 0.049512 0.053953 0.057786 0.060903 0.062953 0.065827 0.045809 0.043883 0.042899 0.04121 0.039976 0.039408 0.039085 
0.011161 0.019483 0.025354 0.031046 0.035884 0.040691 0.044003 0.048611 0.036978 0.035379 0.035398 0.034217 0.032665 0.032575 0.032678 
-0.012556 -0.005123 0.000711 0.006067 0.011551 0.016358 0.020821 0.025713 0.024818 0.023781 0.023772 0.023487 0.022644 0.02282 0.022765 
-0.037247 -0.029554 -0.024219 -0.019434 -0.013981 -0.008926 -0.00396 0.002195 0.010214 0.010234 0.010737 0.010717 0.010661 0.010646 0.01103 
-0.058705 -0.051965 -0.047535 -0.043461 -0.038235 -0.033702 -0.028498 -0.021651 -0.005074 -0.004364 -0.002983 -0.002896 -0.002832 -0.002336 -0.001739 
-0.072981 -0.069234 -0.066083 -0.062751 -0.058353 -0.054989 -0.050597 -0.044715 -0.02079 -0.019343 -0.017779 -0.016882 -0.016404 -0.015281 -0.014629 
-0.081513 -0.079702 -0.07794 -0.076237 -0.073736 -0.070981 -0.067712 -0.062768 -0.034309 -0.032145 -0.030041 -0.028461 -0.027673 -0.026852 -0.025912 
-0.080866 -0.081579 -0.081948 -0.081976 -0.080886 -0.080059 -0.077923 -0.074455 -0.043771 -0.041338 -0.038823 -0.0371 -0.036113 -0.035272 -0.034503 
-0.072427 -0.075431 -0.078127 -0.079529 -0.079783 -0.080618 -0.080517 -0.079305 -0.049432 -0.046762 -0.044956 -0.043376 -0.041982 -0.040774 -0.040084 
-0.059511 -0.063741 -0.067252 -0.070796 -0.07261 -0.073984 -0.075405 -0.076362 -0.050023 -0.047601 -0.046168 -0.044838 -0.043419 -0.042794 -0.041857 
-0.036218 -0.043437 -0.048409 -0.053749 -0.056962 -0.059804 -0.06269 -0.065125 -0.044962 -0.042855 -0.041701 -0.040733 -0.039287 -0.039187 -0.038079 
-0.010165 -0.018193 -0.024329 -0.030108 -0.034968 -0.039147 -0.043418 -0.047234 -0.035783 -0.034202 -0.034148 -0.033323 -0.031949 -0.03184 -0.031127 
0.0109 0.00408 -0.000999 -0.006287 -0.011542 -0.016276 -0.020357 -0.025881 -0.02441 -0.023969 -0.024042 -0.023037 -0.022393 -0.022618 -0.022777 
0.036822 0.028457 0.02331 0.018529 0.013373 0.008315 0.003969 -0.002152 -0.010202 -0.010248 -0.010693 -0.010388 -0.009976 -0.010388 -0.011103 
0.05947 0.052326 0.047327 0.043236 0.037766 0.032937 0.028173 0.022163 0.005705 0.005313 0.003431 0.002745 0.003552 0.002709 0.001989 
0.072255 0.068647 0.065515 0.0628 0.058362 0.054189 0.050161 0.044042 0.020551 0.019237 0.017223 0.016679 0.01655 0.015274 0.014512 
0.081946 0.079472 0.078259 0.076627 0.073527 0.070753 0.067324 0.062442 0.033889 0.031893 0.029968 0.029143 0.027882 0.026957 0.025885 
0.080719 0.081105 0.082215 0.082149 0.080587 0.079867 0.077705 0.074404 0.042999 0.040624 0.038527 0.036801 0.036013 0.034914 0.033909 
0.071735 0.074788 0.077138 0.079169 0.079887 0.080488 0.080341 0.07834 0.047668 0.045459 0.043777 0.04196 0.040972 0.040003 0.038919 
0.060145 0.064334 0.067302 0.070484 0.072627 0.074047 0.07529 0.076163 0.049532 0.047401 0.046082 0.044441 0.042605 0.042566 0.041259 
0.037741 0.045039 0.049626 0.053789 0.05734 0.060721 0.063018 0.065787 0.045882 0.043103 0.042532 0.041381 0.039714 0.039376 0.038715 
0.011132 0.020096 0.025663 0.030577 0.035433 0.040703 0.044141 0.047608 0.036652 0.034513 0.034464 0.033941 0.03267 0.031881 0.031968 
-0.013035 -0.00473 0.000837 0.005997 0.011065 0.016385 0.020894 0.026311 0.024269 0.023684 0.023764 0.023434 0.022372 0.022554 0.022901 
-0.03708 -0.029612 -0.024322 -0.019151 -0.013679 -0.008947 -0.003506 0.00232 0.010225 0.010183 0.011006 0.01089 0.010101 0.010936 0.01122 
-0.057735 -0.051415 -0.047056 -0.042759 -0.037558 -0.033231 -0.02785 -0.022327 -0.004964 -0.004086 -0.00263 -0.002764 -0.002728 -0.001965 -0.001654 
-0.073429 -0.068643 -0.065567 -0.062328 -0.058248 -0.05449 -0.050667 -0.044095 -0.020862 -0.018911 -0.016908 -0.016635 -0.016289 -0.01518 -0.014328 
-0.082295 -0.080608 -0.078708 -0.07684 -0.073593 -0.070934 -0.068118 -0.062554 -0.034188 -0.031994 -0.029554 -0.028469 -0.028167 -0.027057 -0.025945 
-0.080476 -0.081721 -0.082237 -0.082425 -0.081188 -0.080178 -0.07782 -0.074764 -0.043165 -0.040624 -0.038618 -0.037356 -0.036191 -0.035023 -0.034102 
-0.072633 -0.074918 -0.077602 -0.07944 -0.080234 -0.080683 -0.080155 -0.078964 -0.048525 -0.046185 -0.044597 -0.042896 -0.041472 -0.040248 -0.039229 
-0.060051 -0.064538 -0.067383 -0.070634 -0.072418 -0.074118 -0.075345 -0.076103 -0.04978 -0.047644 -0.046278 -0.044298 -0.043049 -0.042514 -0.041328 
-0.035881 -0.043963 -0.048557 -0.053256 -0.057076 -0.060329 -0.062795 -0.06502 -0.045535 -0.043299 -0.042476 -0.040971 -0.039756 -0.039075 -0.038316 
-0.009299 -0.017962 -0.023973 -0.029742 -0.034921 -0.039762 -0.043662 -0.04763 -0.036144 -0.035074 -0.034651 -0.033724 -0.032585 -0.032034 -0.031771 
0.011257 0.004116 -0.000618 -0.006075 -0.011044 -0.016384 -0.020683 -0.026575 -0.024372 -0.0241 -0.024445 -0.024127 -0.022999 -0.023313 -0.023348 
0.035843 0.028122 0.023265 0.018777 0.013144 0.008501 0.003882 -0.00215 -0.01071 -0.010251 -0.0117 -0.011427 -0.010856 -0.011355 -0.01195 
0.059067 0.051879 0.047254 0.043089 0.037563 0.033265 0.028035 0.022303 0.005306 0.004834 0.00308 0.00295 0.003085 0.002154 0.001547 
0.072903 0.068497 0.065284 0.062339 0.058448 0.05439 0.049996 0.044707 0.021199 0.019284 0.017755 0.016586 0.016124 0.015151 0.01433 
0.082303 0.080235 0.077972 0.076669 0.073584 0.070694 0.067524 0.06325 0.033846 0.031647 0.030272 0.028723 0.027759 0.02696 0.025408 
0.081124 0.082429 0.082724 0.082938 0.081381 0.080034 0.077911 0.074142 0.042862 0.040776 0.039037 0.037205 0.036393 0.034963 0.034111 
0.07132 0.074683 0.077205 0.079201 0.080247 0.080802 0.080266 0.078704 0.049127 0.046507 0.044456 0.042597 0.041485 0.040119 0.03966 
0.059448 0.063756 0.066917 0.070046 0.07246 0.074228 0.075075 0.076731 0.05039 0.047754 0.046325 0.044857 0.043639 0.042985 0.04188 
0.037927 0.045438 0.049909 0.054349 0.0581 0.060567 0.062808 0.065378 0.046004 0.043833 0.042897 0.041686 0.04043 0.039843 0.039445 
0.010829 0.019543 0.025374 0.030925 0.036163 0.040464 0.044404 0.047936 0.037472 0.035612 0.03493 0.034174 0.032845 0.032441 0.032751 
-0.013303 -0.005747 0.000125 0.005654 0.011197 0.016118 0.021391 0.02657 0.024495 0.023787 0.023713 0.023564 0.022939 0.023217 0.022964 
-0.036955 -0.029535 -0.024172 -0.019218 -0.014118 -0.009334 -0.003844 0.001655 0.00932 0.009742 0.010452 0.010769 0.01046 0.011014 0.010768 
-0.057994 -0.051538 -0.047068 -0.042841 -0.038235 -0.033094 -0.028303 -0.022878 -0.00559 -0.004951 -0.003437 -0.003143 -0.003237 -0.002337 -0.001749 
-0.073195 -0.068545 -0.065576 -0.062541 -0.058137 -0.054132 -0.049815 -0.044577 -0.020193 -0.019098 -0.017268 -0.016707 -0.016181 -0.014939 -0.014343 
-0.082336 -0.079494 -0.078057 -0.076562 -0.073539 -0.070479 -0.067111 -0.062317 -0.03353 -0.031622 -0.029554 -0.028135 -0.027374 -0.026467 -0.025987 
-0.081259 -0.08175 -0.082494 -0.082308 -0.081316 -0.07984 -0.078274 -0.074376 -0.043736 -0.041322 -0.03907 -0.037401 -0.036246 -0.03565 -0.034442 
-0.072567 -0.075685 -0.077983 -0.080018 -0.08009 -0.081042 -0.081122 -0.079295 -0.049502 -0.046768 -0.044835 -0.043138 -0.041868 -0.041095 -0.040101 
-0.059819 -0.064684 -0.067543 -0.071201 -0.072725 -0.074392 -0.075761 -0.07641 -0.050126 -0.047439 -0.046101 -0.044407 -0.043464 -0.042495 -0.041776 
-0.036624 -0.045086 -0.049843 -0.054025 -0.057541 -0.060784 -0.063152 -0.065699 -0.045281 -0.042851 -0.042397 -0.041271 -0.039904 -0.039492 -0.03849 
-0.010029 -0.018984 -0.025025 -0.030475 -0.035761 -0.040317 -0.044071 -0.048008 -0.036574 -0.03456 -0.0344 -0.033967 -0.032412 -0.032344 -0.032144 
0.01168 0.004568 -0.000911 -0.006259 -0.011901 -0.016294 -0.021159 -0.026421 -0.024608 -0.024032 -0.024049 -0.024 -0.022859 -0.022833 -0.022672 
0.036868 0.028789 0.023573 0.018793 0.013531 0.008511 0.003721 -0.002112 -0.009687 -0.009965 -0.011018 -0.01106 -0.010175 -0.010776 -0.010563 
0.059199 0.052689 0.048045 0.043521 0.038 0.033467 0.028579 0.022844 0.005235 0.004883 0.003506 0.003145 0.003416 0.002816 0.001883 
0.072227 0.068702 0.065776 0.062787 0.058405 0.054937 0.05022 0.044208 0.020145 0.01854 0.017106 0.016384 0.016249 0.01528 0.014489 
0.082207 0.079452 0.078339 0.076572 0.073541 0.070809 0.067665 0.062225 0.033964 0.031629 0.02944 0.028562 0.028013 0.02637 0.025995 
0.082043 0.082262 0.082736 0.082786 0.081012 0.080008 0.078371 0.074717 0.042871 0.040787 0.038505 0.037266 0.035808 0.034976 0.034155 
0.072186 0.075748 0.077574 0.079664 0.080363 0.081062 0.080493 0.078536 0.047919 0.045914 0.043757 0.042351 0.04085 0.04045 0.039239 
0.059951 0.064927 0.067883 0.070695 0.072578 0.074671 0.075855 0.075927 0.049702 0.047683 0.045932 0.044555 0.042987 0.042302 0.04133 
0.038182 0.045546 0.050134 0.054338 0.057701 0.06087 0.063786 0.066462 0.045982 0.043651 0.043186 0.041898 0.039796 0.03921 0.039093 
0.009992 0.01944 0.025352 0.030611 0.036151 0.040411 0.04428 0.048717 0.036886 0.035238 0.035046 0.034131 0.032794 0.032525 0.032154 
-0.014265 -0.005755 6.7e-05 0.00525 0.010806 0.015871 0.020605 0.026109 0.024423 0.023821 0.023988 0.02346 0.022714 0.02281 0.022153 
-0.037096 -0.030148 -0.024818 -0.01988 -0.014372 -0.009724 -0.004395 0.002267 0.01029 0.009885 0.011582 0.011764 0.010444 0.01071 0.010743 
-0.058333 -0.051951 -0.047807 -0.043601 -0.038023 -0.03369 -0.028806 -0.022037 -0.00514 -0.004545 -0.002795 -0.00203 -0.00285 -0.00209 -0.001444 
-0.07355 -0.069019 -0.066396 -0.063157 -0.058504 -0.054894 -0.050767 -0.044647 -0.020367 -0.018892 -0.017258 -0.016572 -0.016339 -0.015338 -0.013945 
-0.082118 -0.080498 -0.078548 -0.077092 -0.073555 -0.071246 -0.067896 -0.062542 -0.033499 -0.03172 -0.029155 -0.028119 -0.027576 -0.026529 -0.025633 
-0.08057 -0.081977 -0.0818 -0.082185 -0.081239 -0.079961 -0.078299 -0.074779 -0.043669 -0.040964 -0.038782 -0.037222 -0.035964 -0.034508 -0.034194 
-0.071593 -0.075141 -0.077002 -0.078743 -0.080149 -0.080668 -0.080485 -0.079657 -0.048976 -0.046451 -0.04489 -0.043498 -0.041659 -0.040667 -0.039457 
-0.059394 -0.064096 -0.067093 -0.070223 -0.072138 -0.074171 -0.07511 -0.076184 -0.049251 -0.047422 -0.045859 -0.044819 -0.043478 -0.042534 -0.041708 
-0.036581 -0.044077 -0.049516 -0.053441 -0.056905 -0.06015 -0.062984 -0.064838 -0.045425 -0.043234 -0.042154 -0.041257 -0.03997 -0.038984 -0.03881 
-0.009565 -0.018284 -0.024935 -0.029961 -0.035199 -0.03966 -0.04374 -0.047542 -0.036926 -0.035208 -0.03485 -0.033924 -0.03221 -0.032434 -0.032053 
0.011666 0.004569 -0.000808 -0.006169 -0.011481 -0.015975 -0.020609 -0.026604 -0.024538 -0.024017 -0.024594 -0.023896 -0.022762 -0.022936 -0.023173 
0.036749 0.029533 0.024374 0.019401 0.014033 0.009138 0.004078 -0.002405 -0.010174 -0.010232 -0.011154 -0.011024 -0.010675 -0.010817 -0.011161 
0.059937 0.053374 0.048809 0.044065 0.038668 0.033592 0.028936 0.022046 0.005059 0.00455 0.003343 0.002901 0.003112 0.002118 0.001954 
0.072602 0.068472 0.06554 0.063005 0.058464 0.054598 0.050589 0.044239 0.020472 0.019088 0.016873 0.016021 0.016028 0.014945 0.014284 
0.081933 0.079731 0.077613 0.07682 0.073495 0.070754 0.067473 0.06276 0.03395 0.031521 0.029226 0.028251 0.027538 0.02611 0.025457 
0.081092 0.081777 0.082028 0.082209 0.080815 0.079763 0.077604 0.074349 0.043239 0.04074 0.038472 0.037131 0.035707 0.034704 0.034018 
0.071352 0.074121 0.07679 0.079015 0.07974 0.080513 0.080041 0.078959 0.048821 0.04649 0.044134 0.042459 0.041209 0.040595 0.039581 
0.060096 0.064358 0.067514 0.070502 0.072531 0.074006 0.075444 0.076265 0.05018 0.047699 0.046088 0.044798 0.043569 0.042332 0.041726 
0.037645 0.045043 0.050036 0.053937 0.057467 0.060392 0.063222 0.065715 0.04579 0.043791 0.04252 0.041672 0.040088 0.039227 0.039208 
0.009761 0.018662 0.024993 0.030229 0.03519 0.040146 0.044095 0.048638 0.036693 0.034956 0.034533 0.033536 0.032792 0.032306 0.031866 
-0.013578 -0.00565 4.2e-05 0.005234 0.010575 0.015733 0.020452 0.025981 0.024318 0.023256 0.024219 0.023004 0.022757 0.022618 0.022027 
-0.03735 -0.030108 -0.024465 -0.01971 -0.014335 -0.009525 -0.00438 0.00173 0.010092 0.010369 0.01138 0.011169 0.010261 0.011129 0.011311 
-0.058734 -0.052346 -0.047436 -0.043557 -0.038314 -0.033316 -0.028595 -0.02193 -0.005262 -0.004425 -0.003356 -0.002582 -0.003135 -0.00176 -0.001438 
-0.073581 -0.06908 -0.065991 -0.062966 -0.058351 -0.054339 -0.050944 -0.044867 -0.021177 -0.019756 -0.017563 -0.017107 -0.016653 -0.015385 -0.01469 
-0.082164 -0.079794 -0.078393 -0.076718 -0.073542 -0.070718 -0.067779 -0.063134 -0.034457 -0.032444 -0.029782 -0.028883 -0.028132 -0.026993 -0.025923 
-0.080632 -0.081417 -0.081884 -0.082521 -0.081376 -0.079618 -0.077622 -0.074964 -0.043463 -0.041144 -0.038952 -0.03739 -0.036367 -0.035195 -0.034441 
-0.072327 -0.075782 -0.077843 -0.079458 -0.080051 -0.080589 -0.080374 -0.079609 -0.048893 -0.046394 -0.0445 -0.043026 -0.041572 -0.040586 -0.039644 
-0.060122 -0.064491 -0.06815 -0.070548 -0.072416 -0.074682 -0.075278 -0.075833 -0.049732 -0.047535 -0.046107 -0.044285 -0.043114 -0.041986 -0.041428 
-0.036155 -0.043232 -0.048773 -0.05347 -0.057066 -0.060417 -0.062983 -0.065207 -0.045215 -0.043032 -0.041928 -0.040545 -0.039876 -0.038675 -0.038535 
-0.009564 -0.018125 -0.02378 -0.029319 -0.034658 -0.03931 -0.043723 -0.047763 -0.036543 -0.03475 -0.034093 -0.033357 -0.032347 -0.032168 -0.031859 
0.010948 0.003971 -0.001058 -0.005735 -0.010853 -0.015885 -0.020051 -0.025567 -0.02472 -0.023835 -0.024607 -0.023923 -0.022433 -0.023115 -0.022909 
0.037364 0.029542 0.023643 0.018823 0.013773 0.008665 0.004029 -0.00206 -0.010116 -0.009762 -0.01101 -0.011129 -0.010274 -0.011025 -0.010901 
0.06046 0.053335 0.048064 0.043667 0.037949 0.033034 0.028041 0.022285 0.005815 0.00512 0.003726 0.003422 0.003449 0.00262 0.001804 
0.072175 0.068568 0.065539 0.062589 0.058606 0.054616 0.050433 0.04476 0.020935 0.019429 0.017258 0.016654 0.016659 0.015537 0.014221 
0.082101 0.079778 0.078362 0.076203 0.073948 0.071167 0.0678 0.062944 0.03378 0.031974 0.030208 0.028601 0.028237 0.02696 0.026222 
0.081573 0.082067 0.082743 0.082704 0.08133 0.08002 0.078139 0.07474 0.043402 0.04091 0.03889 0.037592 0.036727 0.035445 0.034774 
0.071517 0.075382 0.07769 0.0798 0.080332 0.08053 0.080492 0.078506 0.048897 0.046429 0.043793 0.042655 0.041388 0.040388 0.039788 
0.059587 0.064449 0.067738 0.070228 0.072357 0.074047 0.075469 0.075888 0.049566 0.047546 0.046185 0.044674 0.042978 0.042134 0.041513 
0.03763 0.044679 0.049659 0.053865 0.057806 0.060685 0.063439 0.065748 0.045591 0.043648 0.043034 0.041569 0.040507 0.039547 0.038872 
0.010753 0.019118 0.025239 0.030713 0.036175 0.040392 0.044533 0.048088 0.037201 0.035503 0.035007 0.033821 0.032948 0.032642 0.03203 
-0.013516 -0.005994 7.3e-05 0.005094 0.010497 0.015858 0.020725 0.0264 0.0247 0.023659 0.024035 0.023474 0.022374 0.022294 0.022083 
-0.037155 -0.030165 -0.024538 -0.019689 -0.014394 -0.00916 -0.004692 0.001645 0.009961 0.009745 0.010992 0.010771 0.010415 0.010352 0.010922 
-0.05747 -0.051273 -0.046565 -0.042874 -0.037734 -0.032908 -0.028625 -0.022934 -0.005116 -0.004611 -0.003041 -0.002638 -0.003065 -0.002088 -0.00151 
-0.073526 -0.068889 -0.065633 -0.062574 -0.058498 -0.054421 -0.050198 -0.043889 -0.020105 -0.018767 -0.017322 -0.016295 -0.016741 -0.015487 -0.014635 
-0.082576 -0.080458 -0.078939 -0.076486 -0.073735 -0.070895 -0.067795 -0.062066 -0.033658 -0.031679 -0.029734 -0.028731 -0.027882 -0.026823 -0.025548 
-0.080456 -0.081473 -0.082268 -0.082265 -0.081223 -0.079736 -0.078016 -0.074536 -0.043515 -0.040841 -0.039052 -0.037217 -0.035962 -0.034773 -0.033883 
-0.072397 -0.076044 -0.078383 -0.079619 -0.080845 -0.081045 -0.080702 -0.078976 -0.049419 -0.046474 -0.045015 -0.042842 -0.041844 -0.040641 -0.039762 
-0.059436 -0.064927 -0.068144 -0.070435 -0.072781 -0.074901 -0.075886 -0.076724 -0.050325 -0.048367 -0.046242 -0.044832 -0.043564 -0.042449 -0.041375 
-0.035818 -0.04299 -0.04839 -0.052922 -0.056361 -0.060403 -0.062525 -0.065412 -0.04491 -0.043393 -0.042265 -0.040918 -0.039809 -0.038976 -0.038235 
-0.010132 -0.017997 -0.024284 -0.029763 -0.03505 -0.039254 -0.043434 -0.046897 -0.036011 -0.034734 -0.034103 -0.033605 -0.032399 -0.032105 -0.031685 
0.011349 0.004153 -0.001114 -0.006174 -0.011544 -0.015666 -0.020847 -0.02593 -0.024741 -0.023979 -0.023455 -0.023678 -0.022366 -0.022986 -0.022604 
0.036986 0.029591 0.023988 0.019478 0.013902 0.008696 0.004174 -0.002329 -0.010032 -0.009559 -0.010868 -0.010583 -0.010233 -0.01081 -0.011166 
0.059249 0.052538 0.047684 0.043507 0.037691 0.033337 0.028464 0.022101 0.005541 0.004757 0.003289 0.002837 0.00298 0.002598 0.001855 
0.072354 0.068139 0.065586 0.062074 0.058082 0.054773 0.050298 0.044512 0.02052 0.019065 0.017394 0.016384 0.016291 0.015195 0.01479 
0.082138 0.080222 0.07804 0.076311 0.073545 0.070587 0.067351 0.062797 0.034224 0.0324 0.029825 0.02904 0.027938 0.02705 0.025675 
0.080708 0.081966 0.081525 0.08196 0.080593 0.079778 0.077459 0.074404 0.043561 0.040827 0.038597 0.037451 0.036201 0.035349 0.033925 
0.070816 0.074555 0.077206 0.078894 0.079629 0.080537 0.080406 0.078658 0.048456 0.045971 0.043856 0.042573 0.041267 0.040071 0.039286 
0.059074 0.063922 0.067158 0.070182 0.07198 0.073682 0.075108 0.075412 0.049435 0.047237 0.04559 0.044338 0.043005 0.042383 0.040847 
0.037544 0.04455 0.049135 0.053641 0.056974 0.060073 0.062408 0.065068 0.04491 0.043137 0.041895 0.040804 0.039613 0.039076 0.038361 
0.010417 0.018899 0.02525 0.030231 0.03526 0.039594 0.043576 0.047769 0.035724 0.034557 0.033991 0.032828 0.031767 0.031109 0.03149 
-0.013971 -0.006105 -0.000168 0.004998 0.010692 0.015752 0.020306 0.025395 0.023586 0.022568 0.0237 0.022495 0.021519 0.021784 0.021773 
-0.036773 -0.029596 -0.024202 -0.019498 -0.01384 -0.008905 -0.004072 0.002037 0.009884 0.009809 0.011267 0.011195 0.009876 0.01097 0.011095 
-0.05746 -0.051029 -0.046581 -0.042877 -0.037584 -0.033354 -0.028299 -0.022047 -0.005199 -0.004275 -0.003221 -0.002162 -0.002694 -0.001817 -0.001583 
-0.072864 -0.068714 -0.065478 -0.062745 -0.058042 -0.054414 -0.050276 -0.045339 -0.021127 -0.019723 -0.01788 -0.01684 -0.01633 -0.015392 -0.014997 
-0.081649 -0.080122 -0.077927 -0.076489 -0.073176 -0.070612 -0.067281 -0.062834 -0.034045 -0.03229 -0.029846 -0.028948 -0.028377 -0.026984 -0.026079 
-0.081127 -0.082258 -0.082333 -0.082332 -0.081062 -0.079938 -0.077656 -0.073999 -0.043342 -0.040759 -0.038888 -0.037676 -0.036162 -0.035072 -0.034141 
-0.07164 -0.07523 -0.07755 -0.079415 -0.080072 -0.080549 -0.080096 -0.078884 -0.049015 -0.046005 -0.04435 -0.043033 -0.040972 -0.040284 -0.039287 
-0.058568 -0.06334 -0.066755 -0.070125 -0.071941 -0.074068 -0.075018 -0.075511 -0.049285 -0.047175 -0.045518 -0.044006 -0.042658 -0.042001 -0.040859 
-0.036792 -0.043717 -0.04886 -0.053321 -0.056676 -0.060107 -0.062373 -0.064555 -0.045262 -0.043351 -0.042154 -0.040699 -0.039266 -0.038775 -0.037841 
-0.009651 -0.017917 -0.024203 -0.029504 -0.03482 -0.039544 -0.043323 -0.047701 -0.036678 -0.035148 -0.034486 -0.033536 -0.032162 -0.032108 -0.031786 
0.012102 0.004761 -0.000322 -0.005281 -0.010645 -0.016031 -0.020463 -0.026175 -0.024235 -0.023769 -0.02422 -0.02363 -0.022834 -0.02298 -0.023241 
0.036934 0.029407 0.024183 0.01961 0.014602 0.009155 0.004596 -0.00168 -0.00977 -0.009643 -0.01088 -0.011217 -0.010404 -0.010795 -0.010937 
0.059553 0.053107 0.047964 0.043893 0.038625 0.033842 0.028798 0.022525 0.00607 0.005312 0.003589 0.002924 0.003189 0.002437 0.002174 
0.072189 0.068187 0.065595 0.062576 0.058062 0.055033 0.050144 0.044288 0.020839 0.019163 0.017009 0.016494 0.016139 0.015323 0.014594 
0.082013 0.079793 0.078274 0.076436 0.07321 0.070867 0.067382 0.062848 0.0337 0.031699 0.02989 0.028401 0.027896 0.026601 0.026004 
0.080252 0.081564 0.081681 0.082125 0.080644 0.079433 0.077409 0.074631 0.04315 0.040713 0.038816 0.036997 0.035917 0.034425 0.033769 
0.070432 0.073995 0.076423 0.078747 0.079183 0.08008 0.079826 0.078484 0.048308 0.045819 0.043644 0.042277 0.041129 0.039664 0.038943 
0.059899 0.064179 0.067433 0.070266 0.072138 0.073572 0.075264 0.075928 0.050425 0.047817 0.045953 0.044741 0.043412 0.042207 0.041418 
0.037457 0.044645 0.049643 0.053835 0.057387 0.06043 0.062884 0.065776 0.046556 0.044091 0.042986 0.042045 0.040041 0.040168 0.038682 
0.010428 0.018933 0.024634 0.030304 0.0355 0.04047 0.0438 0.048292 0.037069 0.035614 0.035326 0.034513 0.033071 0.033273 0.032189 
-0.013312 -0.005633 -0.000299 0.005118 0.010879 0.015728 0.020298 0.026151 0.024904 0.02419 0.024493 0.023957 0.023285 0.023105 0.023245 
-0.037512 -0.030319 -0.0247 -0.020121 -0.014434 -0.009776 -0.004786 0.001466 0.009738 0.009845 0.011185 0.011103 0.010469 0.011333 0.011503 
-0.05768 -0.051898 -0.047351 -0.043344 -0.03814 -0.033717 -0.028854 -0.023247 -0.005819 -0.004859 -0.002814 -0.002957 -0.003141 -0.00198 -0.001761 
-0.072901 -0.068668 -0.065523 -0.062512 -0.058601 -0.054411 -0.050558 -0.045084 -0.020709 -0.019396 -0.017379 -0.016764 -0.016364 -0.015776 -0.014788 
-0.08173 -0.079619 -0.077742 -0.076201 -0.073285 -0.070112 -0.067427 -0.062654 -0.034251 -0.032155 -0.030279 -0.028268 -0.02754 -0.027058 -0.026134 
-0.080534 -0.081264 -0.081714 -0.081768 -0.080343 -0.079329 -0.077448 -0.074455 -0.043386 -0.04068 -0.03886 -0.037091 -0.035993 -0.035 -0.034483 
-0.072796 -0.075478 -0.077634 -0.079231 -0.079941 -0.080558 -0.080143 -0.078678 -0.048875 -0.045998 -0.044411 -0.042866 -0.04174 -0.040432 -0.039655 
-0.059109 -0.064176 -0.067541 -0.070412 -0.07214 -0.073996 -0.075123 -0.075401 -0.04969 -0.047035 -0.046098 -0.044155 -0.043076 -0.042121 -0.04125 
-0.03604 -0.043656 -0.049084 -0.053608 -0.057141 -0.060068 -0.062516 -0.064555 -0.044866 -0.04294 -0.041913 -0.040679 -0.039266 -0.038618 -0.037931 
-0.009734 -0.018154 -0.024128 -0.02992 -0.03525 -0.039348 -0.043233 -0.047501 -0.036879 -0.035108 -0.034267 -0.033415 -0.032132 -0.032052 -0.031097 
0.012973 0.005034 1e-05 -0.005171 -0.010726 -0.015491 -0.020087 -0.026694 -0.025006 -0.023927 -0.024152 -0.023781 -0.022925 -0.023327 -0.022747 
0.037034 0.029444 0.024099 0.019749 0.013932 0.00887 0.004167 -0.00216 -0.009755 -0.010201 -0.01075 -0.011513 -0.010789 -0.010843 -0.011438 
0.058346 0.052141 0.047226 0.043148 0.038153 0.033053 0.028253 0.023119 0.005575 0.004739 0.003288 0.002851 0.002854 0.002303 0.002049 
0.071931 0.067982 0.065024 0.061673 0.057738 0.054242 0.050089 0.044724 0.020367 0.019381 0.01696 0.016779 0.016352 0.014709 0.01473 
0.081784 0.079494 0.077732 0.075937 0.072663 0.070312 0.067276 0.062254 0.033831 0.031911 0.02987 0.028324 0.028026 0.026779 0.025714 
0.080591 0.081609 0.081662 0.082175 0.081042 0.079481 0.077558 0.074342 0.043355 0.040869 0.038854 0.036835 0.035654 0.034654 0.033866 
0.07064 0.074366 0.076744 0.078954 0.079599 0.079929 0.079902 0.078798 0.048508 0.045843 0.044089 0.042596 0.041086 0.039733 0.039263 
0.059168 0.063742 0.06695 0.070069 0.071939 0.073518 0.075079 0.075536 0.049473 0.047242 0.045949 0.044261 0.043141 0.042682 0.041698 
0.037791 0.045042 0.049606 0.053676 0.057747 0.060482 0.062842 0.064987 0.04549 0.043625 0.04246 0.040993 0.039711 0.039501 0.039058 
0.010256 0.019223 0.025346 0.030382 0.035726 0.039939 0.043556 0.048088 0.03709 0.034624 0.03462 0.033739 0.032675 0.032165 0.031905 
-0.013885 -0.005649 -8.4e-05 0.005294 0.010589 0.015896 0.020374 0.026283 0.024725 0.023452 0.023903 0.02322 0.022326 0.022698 0.022237 
-0.037247 -0.029763 -0.024582 -0.01983 -0.014589 -0.009087 -0.004377 0.001802 0.009866 0.010228 0.010781 0.010859 0.010273 0.010705 0.010971 
-0.058499 -0.052192 -0.047319 -0.043211 -0.03834 -0.033742 -0.028858 -0.022657 -0.005552 -0.005255 -0.003564 -0.002823 -0.003061 -0.002468 -0.001892 
-0.072869 -0.068704 -0.065596 -0.062622 -0.058311 -0.054562 -0.050336 -0.044989 -0.021009 -0.019655 -0.017927 -0.017056 -0.017081 -0.015628 -0.015033 
-0.080721 -0.079343 -0.077485 -0.076435 -0.073265 -0.070525 -0.067329 -0.063123 -0.034028 -0.032013 -0.030182 -0.028901 -0.028013 -0.027191 -0.026089 
-0.080736 -0.081791 -0.081752 -0.082239 -0.081044 -0.079805 -0.07763 -0.074457 -0.043158 -0.041302 -0.038892 -0.036893 -0.036046 -0.035567 -0.034551 
-0.07304 -0.075714 -0.078139 -0.079866 -0.080374 -0.080621 -0.08009 -0.078736 -0.049308 -0.046669 -0.044677 -0.042622 -0.041942 -0.040772 -0.040129 
-0.059053 -0.063876 -0.067346 -0.070178 -0.072506 -0.074072 -0.075395 -0.076618 -0.050326 -0.047979 -0.046231 -0.045172 -0.04361 -0.042111 -0.041746 
-0.03507 -0.043041 -0.048218 -0.052318 -0.056192 -0.059396 -0.062288 -0.065366 -0.045004 -0.043056 -0.041915 -0.041123 -0.039407 -0.038402 -0.038411 
-0.009436 -0.017749 -0.023628 -0.02911 -0.033955 -0.038929 -0.042566 -0.046777 -0.036326 -0.034423 -0.034352 -0.033239 -0.031934 -0.031802 -0.031688 
0.011392 0.004942 0.00044 -0.005169 -0.010944 -0.015979 -0.020026 -0.025747 -0.024957 -0.024176 -0.024552 -0.023974 -0.023138 -0.022765 -0.023028 
0.03705 0.029563 0.024344 0.019725 0.014053 0.009342 0.004328 -0.002242 -0.010359 -0.0102 -0.011273 -0.011274 -0.010629 -0.010423 -0.011473 
0.059631 0.052619 0.047451 0.043655 0.038474 0.033514 0.028451 0.021916 0.005212 0.004985 0.002878 0.002611 0.002919 0.002187 0.001459 
0.072558 0.068508 0.065536 0.062736 0.058185 0.054461 0.050158 0.044275 0.020291 0.018949 0.016645 0.01601 0.01575 0.014717 0.014225 
0.082632 0.079904 0.078083 0.076741 0.073603 0.071006 0.067654 0.063056 0.033914 0.031808 0.029895 0.028601 0.028138 0.026553 0.025895 
0.081223 0.082153 0.082308 0.082684 0.081217 0.079627 0.078009 0.075242 0.043972 0.041415 0.039485 0.037582 0.036431 0.034777 0.034474 
0.071132 0.075048 0.077053 0.079352 0.079797 0.08058 0.080305 0.079814 0.049377 0.046737 0.044838 0.043196 0.041934 0.040589 0.03984 
0.059924 0.063936 0.066955 0.069908 0.072325 0.074126 0.075245 0.076107 0.050175 0.048139 0.0464 0.045467 0.044193 0.042921 0.041867 
0.037255 0.044269 0.049505 0.053237 0.057661 0.060086 0.062667 0.065611 0.045973 0.044258 0.042992 0.041978 0.040301 0.039632 0.039407 
0.009761 0.01815 0.024376 0.030034 0.035398 0.039942 0.043461 0.048634 0.036921 0.035382 0.035202 0.034026 0.033068 0.032885 0.032519 
-0.01328 -0.00619 -0.000597 0.004632 0.010153 0.015365 0.020222 0.025973 0.024594 0.023887 0.024404 0.02374 0.022976 0.023287 0.022921 
-0.037592 -0.029853 -0.024732 -0.020586 -0.014435 -0.009848 -0.004699 0.002064 0.009993 0.010121 0.0115 0.010906 0.01059 0.011125 0.01165 
-0.058563 -0.05178 -0.047634 -0.04346 -0.038067 -0.033414 -0.028884 -0.022696 -0.005435 -0.004895 -0.002938 -0.002686 -0.002349 -0.001859 -0.001138 
-0.073485 -0.068949 -0.065946 -0.063172 -0.058872 -0.054585 -0.050735 -0.04535 -0.020221 -0.019166 -0.017455 -0.015956 -0.016196 -0.015155 -0.014326 
-0.08269 -0.080662 -0.078671 -0.077533 -0.074104 -0.070979 -0.068273 -0.062543 -0.033556 -0.031694 -0.029566 -0.028472 -0.027954 -0.026876 -0.026038 
-0.080699 -0.082157 -0.082298 -0.082468 -0.081504 -0.080111 -0.07818 -0.07474 -0.043253 -0.040543 -0.038489 -0.037178 -0.036023 -0.034763 -0.034183 
-0.072633 -0.0754 -0.077663 -0.079261 -0.08009 -0.080821 -0.080331 -0.079293 -0.048858 -0.045944 -0.044183 -0.042388 -0.041574 -0.040054 -0.039198 
-0.059542 -0.064071 -0.067576 -0.070307 -0.072317 -0.074243 -0.07542 -0.076273 -0.049886 -0.04775 -0.045555 -0.044156 -0.043029 -0.042413 -0.041314 
-0.035454 -0.043355 -0.048814 -0.053084 -0.057226 -0.060227 -0.06265 -0.065497 -0.045089 -0.043358 -0.042133 -0.040451 -0.039458 -0.038945 -0.038211 
-0.009881 -0.018183 -0.024071 -0.029428 -0.034797 -0.039408 -0.04342 -0.047581 -0.0367 -0.034953 -0.034963 -0.033855 -0.032444 -0.031996 -0.031588 
0.011965 0.004546 -0.000155 -0.005453 -0.010847 -0.016036 -0.020198 -0.026796 -0.025035 -0.024402 -0.024736 -0.024646 -0.023162 -0.023477 -0.023404 
0.037273 0.029555 0.024141 0.019362 0.013654 0.008789 0.004556 -0.002643 -0.00994 -0.010289 -0.011467 -0.011338 -0.011285 -0.011533 -0.011764 
0.059391 0.053089 0.048139 0.043889 0.038089 0.033841 0.02874 0.022405 0.005226 0.004802 0.002903 0.002613 0.002594 0.001768 0.001752 
0.07304 0.06921 0.066525 0.063431 0.058902 0.055226 0.050808 0.044427 0.020039 0.018852 0.016808 0.015921 0.016302 0.014824 0.014291 
0.082511 0.080011 0.078496 0.077303 0.074491 0.071434 0.068155 0.063088 0.033751 0.031586 0.029787 0.028507 0.027771 0.026669 0.025201 
0.081131 0.081859 0.082096 0.082487 0.081539 0.080373 0.078377 0.074769 0.043053 0.040434 0.03878 0.037216 0.035613 0.034607 0.033406 
0.071444 0.075318 0.077193 0.079164 0.079959 0.080748 0.08056 0.078625 0.048393 0.045623 0.04367 0.04206 0.04064 0.039673 0.038953 
0.059637 0.064078 0.067379 0.070601 0.072409 0.074036 0.075281 0.076262 0.04972 0.04737 0.045681 0.044059 0.042698 0.04178 0.041238 
0.037435 0.043991 0.049603 0.053794 0.057204 0.060317 0.062988 0.065982 0.045093 0.043335 0.041949 0.041092 0.039794 0.038985 0.038868 
0.010542 0.018872 0.02509 0.030429 0.035299 0.040076 0.04396 0.048166 0.036116 0.034869 0.03416 0.033548 0.03285 0.032255 0.03221 
-0.013276 -0.004928 0.000444 0.005596 0.011124 0.016107 0.020839 0.026163 0.024515 0.023534 0.024399 0.023642 0.022724 0.02241 0.0224 
-0.037657 -0.029737 -0.024717 -0.0201 -0.013842 -0.008982 -0.004082 0.002233 0.010433 0.009841 0.011104 0.011094 0.010197 0.010738 0.011219 
-0.058323 -0.052736 -0.048258 -0.043794 -0.038283 -0.03352 -0.029113 -0.02218 -0.00524 -0.004571 -0.003284 -0.003211 -0.002821 -0.001909 -0.001393 
-0.073218 -0.069273 -0.066075 -0.063109 -0.059127 -0.055173 -0.05098 -0.044961 -0.020719 -0.019245 -0.017307 -0.01682 -0.016449 -0.015597 -0.014849 
-0.082187 -0.079871 -0.078272 -0.076957 -0.073794 -0.071287 -0.067966 -0.063163 -0.033695 -0.031654 -0.029995 -0.02876 -0.028201 -0.027007 -0.02607 
-0.080758 -0.081702 -0.082406 -0.082403 -0.080881 -0.080085 -0.078563 -0.074169 -0.043321 -0.040287 -0.038631 -0.037696 -0.035893 -0.034742 -0.034316 
-0.072797 -0.075554 -0.078057 -0.080081 -0.080492 -0.081113 -0.080818 -0.078691 -0.049037 -0.046336 -0.044043 -0.042916 -0.041528 -0.040387 -0.03965 
-0.059957 -0.064332 -0.067392 -0.070536 -0.072661 -0.074726 -0.075322 -0.076786 -0.049751 -0.047459 -0.0458 -0.044129 -0.043416 -0.041918 -0.041341 
-0.036249 -0.043246 -0.048365 -0.052581 -0.056633 -0.059987 -0.062713 -0.065618 -0.045447 -0.042937 -0.042081 -0.040555 -0.039608 -0.038592 -0.038407 
-0.010161 -0.018069 -0.024178 -0.029998 -0.03499 -0.038993 -0.043944 -0.047421 -0.036921 -0.03523 -0.034721 -0.033724 -0.032575 -0.032562 -0.031836 
0.011227 0.004128 -0.000841 -0.005844 -0.011428 -0.016082 -0.021168 -0.02642 -0.024967 -0.024089 -0.024725 -0.023831 -0.02308 -0.023133 -0.023092 
0.036686 0.029458 0.024022 0.019657 0.013713 0.00856 0.003954 -0.002566 -0.010234 -0.010118 -0.011325 -0.010867 -0.010553 -0.010565 -0.011169 
0.059323 0.052468 0.047957 0.043209 0.038297 0.033046 0.028696 0.022327 0.005416 0.004416 0.003479 0.002767 0.003143 0.002421 0.001727 
0.072623 0.068176 0.065534 0.062426 0.058765 0.054319 0.050604 0.044558 0.020695 0.019067 0.017361 0.016463 0.016102 0.015429 0.014273 
0.082091 0.080163 0.078226 0.076478 0.073703 0.071009 0.067698 0.062811 0.034232 0.031863 0.029567 0.028685 0.027716 0.027213 0.026275 
0.080812 0.082013 0.082337 0.082374 0.080933 0.079853 0.077864 0.074884 0.043333 0.040884 0.038696 0.037579 0.03647 0.035348 0.034082 
0.071806 0.074885 0.077201 0.079564 0.079897 0.080699 0.080905 0.078929 0.04885 0.046684 0.044495 0.043178 0.041789 0.040775 0.039298 
0.060246 0.064135 0.06763 0.070534 0.072432 0.074503 0.076124 0.076067 0.050665 0.047904 0.046606 0.044738 0.043896 0.042821 0.042336 
0.037563 0.044618 0.04955 0.054193 0.057532 0.060419 0.063158 0.06603 0.046098 0.043878 0.043318 0.041694 0.040781 0.039516 0.039182 
0.010301 0.01915 0.024452 0.030475 0.035198 0.040136 0.043848 0.048428 0.036848 0.035551 0.035291 0.03409 0.03268 0.03257 0.031941 
-0.01379 -0.005735 -0.000421 0.004791 0.010272 0.015617 0.020261 0.026243 0.024747 0.023576 0.024157 0.023361 0.022566 0.022738 0.022766 
-0.037457 -0.030501 -0.024973 -0.020354 -0.014596 -0.009975 -0.004692 0.001982 0.010338 0.009953 0.011017 0.011123 0.010748 0.01062 0.011284 
-0.057698 -0.052047 -0.04724 -0.043787 -0.038579 -0.03346 -0.028951 -0.022867 -0.005367 -0.00479 -0.003082 -0.002628 -0.002995 -0.002212 -0.001495 
-0.073064 -0.068697 -0.065727 -0.06302 -0.05874 -0.054789 -0.051122 -0.045344 -0.020972 -0.019586 -0.017602 -0.016715 -0.016627 -0.01558 -0.014673 
-0.082072 -0.080284 -0.078926 -0.076957 -0.073543 -0.071297 -0.068222 -0.062875 -0.03368 -0.031498 -0.029949 -0.028556 -0.027894 -0.027032 -0.026133 
-0.080406 -0.081496 -0.081834 -0.082311 -0.081265 -0.079761 -0.078153 -0.074278 -0.043239 -0.040226 -0.038372 -0.036947 -0.036007 -0.034885 -0.034097 
-0.07216 -0.075215 -0.077207 -0.079245 -0.080407 -0.080825 -0.08034 -0.079029 -0.048854 -0.046127 -0.044293 -0.042568 -0.041208 -0.040279 -0.039282 
-0.058889 -0.064277 -0.067318 -0.070334 -0.072066 -0.074294 -0.074995 -0.076101 -0.049127 -0.047442 -0.046001 -0.044274 -0.042605 -0.041907 -0.041203 
-0.034858 -0.042957 -0.047945 -0.052699 -0.056411 -0.059255 -0.062216 -0.064721 -0.044933 -0.042911 -0.041716 -0.040219 -0.03895 -0.038395 -0.037989 
-0.009091 -0.017707 -0.023474 -0.028829 -0.034582 -0.038347 -0.042602 -0.047303 -0.036135 -0.034501 -0.034159 -0.0329 -0.031868 -0.031565 -0.031204 
0.011596 0.004801 -0.00038 -0.00516 -0.010131 -0.015195 -0.019464 -0.025923 -0.024262 -0.023769 -0.024085 -0.023892 -0.022577 -0.022578 -0.022284 
0.036775 0.029714 0.024103 0.019468 0.014633 0.00942 0.004668 -0.001732 -0.01038 -0.010325 -0.011129 -0.011521 -0.010477 -0.011313 -0.010933 
0.059137 0.052539 0.047669 0.043662 0.038302 0.033729 0.028803 0.022167 0.005209 0.004461 0.002802 0.002491 0.002675 0.001381 0.001265 
0.072271 0.068681 0.065287 0.062658 0.058611 0.054679 0.050407 0.04449 0.020483 0.019048 0.01711 0.016018 0.015713 0.014864 0.014161 
0.082128 0.079953 0.078115 0.076493 0.073568 0.070779 0.067317 0.063055 0.03368 0.031668 0.029976 0.028388 0.027611 0.02657 0.026113 
0.080538 0.081378 0.082063 0.082419 0.081148 0.079496 0.077783 0.07444 0.042843 0.040492 0.038326 0.036904 0.035828 0.034473 0.033872 
0.070919 0.074951 0.076992 0.079095 0.079953 0.080113 0.080224 0.078849 0.04837 0.046384 0.043749 0.042256 0.041162 0.040466 0.038932 
