0.038628 0.030906 0.02578 0.020838 0.015375 0.010642 0.005641 -0.000447 -0.009132 -0.00953 -0.010418 -0.010197 -0.009817 -0.009966 -0.010565 
0.06003 0.05382 0.0494 0.044943 0.039291 0.034826 0.030136 0.022948 0.006407 0.005559 0.003898 0.003592 0.00371 0.00277 0.002011 
0.072829 0.069451 0.066392 0.063535 0.059334 0.055621 0.051908 0.045621 0.021308 0.020101 0.017535 0.016883 0.016917 0.015551 0.014822 
0.082225 0.079844 0.078356 0.077167 0.074248 0.071549 0.067853 0.063228 0.033934 0.032366 0.030163 0.028929 0.02836 0.027412 0.026548 
0.080583 0.081467 0.082277 0.082621 0.081343 0.08008 0.07765 0.07431 0.043638 0.041673 0.03916 0.037681 0.03633 0.035688 0.034805 
0.07073 0.074487 0.076555 0.07862 0.079491 0.079686 0.079976 0.079324 0.049257 0.046775 0.044659 0.043093 0.041757 0.04067 0.039904 
0.057802 0.062416 0.065397 0.069039 0.071275 0.072961 0.074596 0.075588 0.049969 0.047727 0.04649 0.044765 0.043087 0.042292 0.041488 
0.035243 0.042683 0.047377 0.052239 0.055747 0.05945 0.061316 0.064405 0.045478 0.043804 0.042447 0.041212 0.039498 0.03917 0.038893 
0.008715 0.017563 0.023537 0.028632 0.033755 0.0385 0.04194 0.047324 0.036139 0.034804 0.034509 0.033534 0.032566 0.032143 0.032075 
-0.015721 -0.007909 -0.001857 0.003263 0.00908 0.014083 0.019168 0.024563 0.023894 0.022785 0.023648 0.023056 0.022231 0.022182 0.021522 
-0.039654 -0.032302 -0.026941 -0.021671 -0.016524 -0.011215 -0.006111 0.000104 0.009384 0.009091 0.01025 0.010152 0.009611 0.010208 0.010209 
-0.059283 -0.053195 -0.048826 -0.044607 -0.039952 -0.035307 -0.030547 -0.024173 -0.006494 -0.005576 -0.003835 -0.00356 -0.0038 -0.003039 -0.001888 
-0.073926 -0.069817 -0.067005 -0.064118 -0.059395 -0.056023 -0.051806 -0.046201 -0.021274 -0.020148 -0.018081 -0.016934 -0.017012 -0.016217 -0.015062 
-0.082595 -0.080646 -0.079414 -0.077957 -0.074222 -0.072024 -0.068353 -0.063284 -0.034314 -0.032464 -0.030361 -0.029111 -0.028341 -0.027013 -0.026362 
-0.080202 -0.081538 -0.082032 -0.082693 -0.08116 -0.08029 -0.078057 -0.075188 -0.044113 -0.041412 -0.039507 -0.038013 -0.036597 -0.03548 -0.035038 
-0.071353 -0.074745 -0.077302 -0.079347 -0.079834 -0.080558 -0.080528 -0.079494 -0.049156 -0.046886 -0.045406 -0.043064 -0.041912 -0.041327 -0.040304 
-0.057768 -0.062495 -0.066486 -0.069193 -0.071617 -0.07352 -0.074742 -0.075579 -0.049717 -0.047383 -0.045988 -0.044265 -0.043418 -0.042544 -0.041314 
-0.033449 -0.04132 -0.046389 -0.050723 -0.054989 -0.058361 -0.061332 -0.064371 -0.045106 -0.042882 -0.041616 -0.040684 -0.039246 -0.038683 -0.03802 
-0.007702 -0.016455 -0.021751 -0.027581 -0.032766 -0.037567 -0.041868 -0.046518 -0.036136 -0.034666 -0.034453 -0.033196 -0.031644 -0.031573 -0.031231 
0.013653 0.006595 0.001566 -0.003828 -0.009419 -0.013779 -0.018198 -0.024709 -0.023848 -0.023211 -0.024042 -0.023237 -0.022144 -0.022382 -0.022596 
0.038827 0.031601 0.026142 0.021401 0.015731 0.011206 0.006505 -0.000387 -0.008907 -0.009409 -0.010053 -0.011018 -0.009654 -0.010413 -0.01106 
0.060127 0.053532 0.048912 0.044848 0.039548 0.034876 0.030286 0.024098 0.006381 0.005172 0.00438 0.002933 0.003661 0.002836 0.002083 
0.072816 0.068847 0.066068 0.06328 0.058715 0.055507 0.051312 0.04612 0.021327 0.019727 0.017627 0.01705 0.016874 0.015831 0.014807 
0.082343 0.080551 0.079095 0.077299 0.074174 0.071397 0.068264 0.063876 0.034494 0.032534 0.029929 0.029103 0.028884 0.027468 0.026512 
0.080568 0.081851 0.082327 0.082503 0.081513 0.080173 0.078426 0.074768 0.043669 0.041085 0.039012 0.037711 0.036505 0.035174 0.03429 
0.070085 0.073755 0.076262 0.078231 0.079078 0.080159 0.079838 0.078899 0.049207 0.046454 0.044497 0.042958 0.041147 0.040111 0.039452 
0.057819 0.06221 0.06602 0.068803 0.070829 0.072754 0.074353 0.076019 0.050074 0.047902 0.046499 0.044609 0.043421 0.042386 0.041947 
0.035625 0.042487 0.047452 0.052213 0.055643 0.058673 0.061486 0.064734 0.045103 0.042971 0.042648 0.04135 0.039952 0.039161 0.038564 
0.0085 0.017151 0.023116 0.028976 0.033437 0.038007 0.041791 0.046456 0.035775 0.034234 0.033963 0.03335 0.031664 0.031951 0.031685 
-0.015014 -0.007384 -0.001158 0.003793 0.009078 0.014023 0.018673 0.024027 0.023482 0.022997 0.023006 0.022805 0.02187 0.022368 0.022201 
-0.038218 -0.031074 -0.025582 -0.021175 -0.014985 -0.010761 -0.005857 5.8e-05 0.009198 0.009371 0.010251 0.010477 0.00999 0.010351 0.010459 
-0.058841 -0.052312 -0.048 -0.044044 -0.038587 -0.034338 -0.029589 -0.023577 -0.006298 -0.005181 -0.003867 -0.003634 -0.003876 -0.002699 -0.001884 
-0.073844 -0.069652 -0.066523 -0.063433 -0.059188 -0.054986 -0.050996 -0.04536 -0.021407 -0.019834 -0.018048 -0.017556 -0.017005 -0.015739 -0.015247 
-0.08188 -0.0804 -0.078712 -0.076914 -0.073649 -0.071232 -0.068039 -0.06325 -0.034027 -0.032122 -0.030074 -0.028834 -0.028141 -0.027205 -0.026412 
-0.079863 -0.081083 -0.081586 -0.081986 -0.080723 -0.079752 -0.078057 -0.074585 -0.043624 -0.041084 -0.039005 -0.037157 -0.036428 -0.035641 -0.03407 
-0.071673 -0.074777 -0.077529 -0.079285 -0.079992 -0.080192 -0.080354 -0.078805 -0.049614 -0.046881 -0.045081 -0.04306 -0.041912 -0.041194 -0.040084 
-0.057507 -0.062471 -0.066721 -0.069518 -0.071711 -0.073585 -0.074939 -0.075843 -0.050203 -0.047784 -0.046367 -0.044437 -0.043423 -0.042434 -0.041823 
-0.033166 -0.04126 -0.046693 -0.051413 -0.055499 -0.05887 -0.061584 -0.064072 -0.044594 -0.042666 -0.041502 -0.040097 -0.038928 -0.038435 -0.037956 
-0.008371 -0.017205 -0.022744 -0.027777 -0.033262 -0.037688 -0.041468 -0.045551 -0.035062 -0.033258 -0.033046 -0.032521 -0.031586 -0.031371 -0.03098 
0.013021 0.005696 0.000461 -0.004317 -0.009396 -0.014047 -0.018559 -0.023891 -0.023161 -0.02212 -0.022658 -0.022496 -0.021738 -0.021606 -0.021532 
0.038512 0.031535 0.025602 0.020419 0.015449 0.010314 0.005536 -0.00077 -0.008828 -0.008976 -0.009551 -0.009895 -0.008728 -0.009444 -0.009608 
0.059969 0.0542 0.049304 0.045086 0.039626 0.034533 0.030101 0.022873 0.006149 0.005335 0.004575 0.003534 0.003774 0.003152 0.002798 
0.073307 0.069298 0.066647 0.063601 0.059589 0.055875 0.051272 0.045601 0.020975 0.019583 0.017702 0.016913 0.016515 0.016059 0.015109 
0.082554 0.08044 0.078787 0.076902 0.074447 0.071817 0.067992 0.063364 0.034082 0.032663 0.029702 0.028803 0.028148 0.027295 0.026528 
0.080638 0.081933 0.082269 0.08281 0.081445 0.08031 0.07845 0.074177 0.043206 0.040959 0.038992 0.037221 0.035972 0.035124 0.03433 
0.070604 0.073995 0.076547 0.078968 0.079564 0.080226 0.080018 0.078519 0.048681 0.045582 0.044417 0.042482 0.041324 0.04056 0.03897 
0.057404 0.062365 0.065981 0.069236 0.071261 0.07281 0.074566 0.075312 0.049465 0.047416 0.04567 0.043989 0.042737 0.042082 0.040892 
0.035219 0.042737 0.047764 0.052127 0.055818 0.058832 0.061779 0.064608 0.044981 0.043208 0.041889 0.040567 0.039461 0.038852 0.038195 
0.008425 0.016923 0.022982 0.02793 0.033655 0.038694 0.041965 0.047167 0.035883 0.034167 0.033841 0.033163 0.031806 0.03197 0.031089 
-0.015942 -0.007843 -0.001804 0.002751 0.008754 0.014096 0.018954 0.024517 0.023176 0.02235 0.022755 0.022699 0.021337 0.021828 0.021327 
-0.038701 -0.03121 -0.026053 -0.021717 -0.016132 -0.01155 -0.005836 8.4e-05 0.008937 0.008611 0.009641 0.010093 0.009852 0.009812 0.010044 
-0.059022 -0.052848 -0.048673 -0.044885 -0.039455 -0.034976 -0.03043 -0.024318 -0.006522 -0.005936 -0.004447 -0.003908 -0.004225 -0.003431 -0.00263 
-0.074376 -0.070391 -0.066796 -0.063977 -0.059791 -0.055731 -0.051838 -0.046597 -0.021907 -0.020587 -0.018622 -0.018021 -0.018018 -0.016867 -0.015622 
-0.082281 -0.080869 -0.078952 -0.07719 -0.074817 -0.071775 -0.068431 -0.063494 -0.03467 -0.032688 -0.030539 -0.029471 -0.028574 -0.027858 -0.026712 
-0.079778 -0.081171 -0.081991 -0.082316 -0.081154 -0.07976 -0.077995 -0.074536 -0.043674 -0.041381 -0.038792 -0.037452 -0.036746 -0.035913 -0.034795 
-0.071274 -0.074336 -0.077077 -0.078963 -0.079259 -0.08007 -0.079994 -0.079201 -0.048998 -0.047005 -0.044559 -0.042887 -0.041818 -0.041102 -0.039823 
-0.058096 -0.062448 -0.066288 -0.06904 -0.071484 -0.073374 -0.074897 -0.075729 -0.049829 -0.047344 -0.046351 -0.044719 -0.042965 -0.042278 -0.041244 
-0.033832 -0.04123 -0.046699 -0.051233 -0.055588 -0.058507 -0.061421 -0.064007 -0.044512 -0.042263 -0.04156 -0.04083 -0.039017 -0.038796 -0.037882 
-0.008031 -0.016127 -0.022393 -0.027498 -0.032783 -0.037163 -0.041482 -0.045951 -0.03531 -0.033665 -0.033131 -0.03283 -0.031587 -0.031418 -0.031039 
0.013511 0.006461 0.001041 -0.003331 -0.009043 -0.013817 -0.018739 -0.024335 -0.023626 -0.02264 -0.023198 -0.022774 -0.021906 -0.021709 -0.022248 
0.039047 0.03109 0.026034 0.021332 0.015243 0.010296 0.005791 -0.000297 -0.00876 -0.009534 -0.010069 -0.01 -0.009147 -0.009983 -0.010526 
0.060441 0.053753 0.049453 0.04486 0.039516 0.034658 0.030086 0.024327 0.006956 0.005711 0.004495 0.003764 0.003946 0.003234 0.002923 
0.073328 0.069285 0.066507 0.063632 0.059677 0.055714 0.051766 0.046331 0.021746 0.020648 0.018041 0.017257 0.017006 0.016049 0.015598 
0.081821 0.0797 0.078254 0.076705 0.073913 0.071181 0.068365 0.063876 0.034362 0.032604 0.030011 0.029451 0.02877 0.027221 0.026426 
0.079801 0.080784 0.081673 0.081739 0.080807 0.079476 0.07771 0.07485 0.043506 0.041106 0.038947 0.037934 0.036578 0.035557 0.034559 
0.071066 0.074029 0.076423 0.078846 0.079589 0.079853 0.080373 0.07843 0.049036 0.046283 0.044263 0.04352 0.041981 0.040486 0.040029 
0.058245 0.062944 0.065765 0.069107 0.071039 0.073168 0.074942 0.075214 0.049712 0.047706 0.045567 0.044844 0.042998 0.042208 0.041715 
0.034985 0.042628 0.047496 0.051985 0.05537 0.058951 0.060986 0.064277 0.045084 0.043271 0.04186 0.040569 0.039216 0.039245 0.038289 
0.008386 0.016972 0.023181 0.028982 0.033763 0.038122 0.042068 0.046521 0.036351 0.034291 0.034316 0.033364 0.032716 0.031789 0.031379 
-0.015422 -0.007714 -0.002152 0.002896 0.008928 0.013666 0.018841 0.024567 0.023982 0.023057 0.023823 0.022973 0.022094 0.021982 0.022136 
-0.038623 -0.031811 -0.026526 -0.022075 -0.016375 -0.011389 -0.006674 0.000278 0.009266 0.00943 0.010512 0.010115 0.00965 0.010243 0.010755 
-0.059328 -0.053254 -0.048566 -0.044345 -0.039816 -0.034921 -0.030395 -0.023545 -0.006234 -0.004939 -0.003848 -0.003043 -0.002972 -0.002308 -0.002079 
-0.074691 -0.070148 -0.066963 -0.063969 -0.059581 -0.056065 -0.052028 -0.045685 -0.021536 -0.019811 -0.018084 -0.016833 -0.016404 -0.015122 -0.015313 
-0.081732 -0.080084 -0.078478 -0.077268 -0.073861 -0.071716 -0.068827 -0.064181 -0.034397 -0.032961 -0.03019 -0.029113 -0.027947 -0.027 -0.026471 
-0.079712 -0.08084 -0.081143 -0.082055 -0.080856 -0.079462 -0.078108 -0.075107 -0.043921 -0.041317 -0.038941 -0.037793 -0.036602 -0.03531 -0.03449 
-0.071921 -0.075131 -0.077026 -0.07915 -0.079767 -0.080297 -0.080417 -0.079097 -0.049424 -0.046591 -0.04496 -0.043326 -0.042335 -0.040825 -0.040059 
-0.057335 -0.062624 -0.066136 -0.069096 -0.071086 -0.07345 -0.074427 -0.076038 -0.049732 -0.047853 -0.046254 -0.044754 -0.043412 -0.042265 -0.04176 
-0.033264 -0.040875 -0.046443 -0.051077 -0.055015 -0.058338 -0.060835 -0.064535 -0.045368 -0.043326 -0.042236 -0.041066 -0.039576 -0.038598 -0.038437 
-0.007627 -0.016023 -0.022137 -0.027306 -0.032924 -0.037233 -0.041438 -0.046798 -0.036164 -0.034651 -0.034332 -0.033397 -0.032211 -0.03227 -0.031531 
0.01404 0.006845 0.001291 -0.003414 -0.008743 -0.013255 -0.018166 -0.024299 -0.023534 -0.023059 -0.023288 -0.02318 -0.022313 -0.022365 -0.021751 
0.038236 0.031136 0.025902 0.020977 0.015853 0.011057 0.006111 0.000431 -0.009177 -0.009018 -0.009921 -0.010267 -0.010082 -0.010053 -0.010141 
0.060156 0.053392 0.049341 0.04499 0.03969 0.034796 0.030295 0.024642 0.006578 0.006019 0.004669 0.003972 0.003809 0.002749 0.002071 
0.073237 0.069121 0.066301 0.063547 0.059373 0.05572 0.051523 0.046716 0.021254 0.020179 0.018092 0.017188 0.017285 0.016268 0.015372 
0.081929 0.080228 0.078346 0.076899 0.073837 0.071397 0.06796 0.063486 0.034103 0.032418 0.03005 0.029156 0.028293 0.027429 0.027005 
0.080546 0.081824 0.082257 0.082681 0.081405 0.080181 0.078422 0.074384 0.044361 0.04173 0.039791 0.037925 0.03655 0.035555 0.034629 
0.070135 0.074269 0.076314 0.078849 0.079936 0.080335 0.080382 0.07927 0.049424 0.047088 0.04508 0.042904 0.041812 0.040962 0.039782 
0.057962 0.062968 0.065833 0.069022 0.071262 0.073114 0.074805 0.075486 0.049479 0.047164 0.04608 0.044867 0.042936 0.041805 0.041525 
0.035615 0.043073 0.048053 0.052134 0.055847 0.058853 0.061763 0.063658 0.044796 0.04245 0.042066 0.040942 0.03935 0.038601 0.038412 
0.007657 0.016642 0.022512 0.028224 0.033607 0.038107 0.04202 0.04672 0.035795 0.034409 0.033962 0.032374 0.031656 0.031685 0.031208 
-0.015697 -0.008141 -0.002491 0.002746 0.008531 0.013987 0.01866 0.024927 0.023603 0.022648 0.023268 0.022314 0.021377 0.021625 0.021223 
-0.039171 -0.031871 -0.026067 -0.021933 -0.016321 -0.011705 -0.006802 -0.00024 0.008544 0.008649 0.009454 0.009964 0.009244 0.009785 0.009744 
-0.059723 -0.053561 -0.048995 -0.045034 -0.039835 -0.035736 -0.031069 -0.024773 -0.007208 -0.006091 -0.005306 -0.003904 -0.004323 -0.003444 -0.002888 
-0.073485 -0.06963 -0.066823 -0.063885 -0.059461 -0.055871 -0.051997 -0.046764 -0.021744 -0.020425 -0.01874 -0.017722 -0.017501 -0.01631 -0.01558 
-0.081232 -0.079595 -0.078141 -0.076822 -0.073478 -0.071379 -0.068352 -0.063948 -0.0343 -0.032198 -0.030089 -0.029392 -0.028429 -0.027353 -0.026406 
-0.079772 -0.081263 -0.081795 -0.08233 -0.08092 -0.079593 -0.077659 -0.074307 -0.043594 -0.041341 -0.038867 -0.037437 -0.036454 -0.035872 -0.034475 
-0.071908 -0.074822 -0.077207 -0.079194 -0.080263 -0.080019 -0.079973 -0.078773 -0.049248 -0.046805 -0.044671 -0.042995 -0.041659 -0.04101 -0.039628 
-0.057709 -0.062532 -0.066065 -0.069205 -0.071648 -0.073367 -0.074812 -0.075902 -0.050204 -0.047306 -0.045842 -0.044492 -0.042825 -0.042464 -0.041343 
-0.033465 -0.041697 -0.046622 -0.051398 -0.055188 -0.058612 -0.061359 -0.06375 -0.044908 -0.042838 -0.041709 -0.040418 -0.038986 -0.038844 -0.038285 
-0.008196 -0.016281 -0.02233 -0.027441 -0.032989 -0.037236 -0.041663 -0.045673 -0.035219 -0.03401 -0.034021 -0.032786 -0.031785 -0.031107 -0.031261 
0.013877 0.006769 0.001001 -0.003812 -0.009324 -0.013865 -0.018506 -0.02472 -0.023393 -0.022587 -0.023455 -0.022649 -0.021588 -0.021578 -0.022072 
0.039009 0.031108 0.025933 0.021096 0.015593 0.010609 0.006231 -0.000232 -0.008701 -0.008934 -0.009867 -0.009811 -0.008826 -0.009762 -0.010152 
0.060482 0.054313 0.049763 0.045751 0.03979 0.035485 0.030647 0.024786 0.007408 0.005972 0.004448 0.004445 0.004402 0.003549 0.003136 
0.073772 0.070159 0.066961 0.064234 0.059706 0.056387 0.052123 0.04627 0.022302 0.020564 0.018356 0.017455 0.017496 0.016626 0.015753 
0.082052 0.079811 0.078166 0.077212 0.074459 0.071634 0.068691 0.064155 0.035383 0.033188 0.030992 0.028819 0.028914 0.027721 0.026972 
0.080033 0.080969 0.08162 0.081883 0.080788 0.079648 0.078352 0.075311 0.044339 0.041576 0.039629 0.038124 0.036916 0.035496 0.034928 
0.070744 0.074298 0.076959 0.078133 0.079021 0.079517 0.079815 0.078264 0.0486 0.046332 0.044528 0.043099 0.041588 0.040589 0.039993 
0.057664 0.062381 0.065978 0.069159 0.071236 0.072896 0.074121 0.075272 0.049339 0.047231 0.045742 0.044317 0.042496 0.042044 0.041522 
0.035118 0.042347 0.047835 0.051968 0.055515 0.059002 0.061487 0.06417 0.044765 0.042875 0.042009 0.041126 0.039298 0.03901 0.037876 
0.008969 0.017175 0.023709 0.028418 0.033753 0.038362 0.042126 0.046088 0.035516 0.034492 0.034357 0.033003 0.032325 0.032085 0.031259 
-0.015267 -0.008055 -0.002113 0.003248 0.009114 0.014064 0.018845 0.024596 0.023518 0.022869 0.023152 0.022851 0.021665 0.021802 0.021769 
-0.039424 -0.032276 -0.026617 -0.021999 -0.016404 -0.011218 -0.006175 1.5e-05 0.00853 0.00859 0.009405 0.010096 0.008749 0.009783 0.009614 
-0.059525 -0.053332 -0.048907 -0.044594 -0.039598 -0.035269 -0.030785 -0.024658 -0.007407 -0.006358 -0.004719 -0.004373 -0.004086 -0.003178 -0.002883 
-0.074021 -0.069997 -0.067014 -0.063551 -0.059475 -0.056293 -0.051942 -0.046708 -0.02196 -0.020613 -0.018818 -0.017719 -0.017139 -0.016503 -0.015806 
-0.082625 -0.080408 -0.078965 -0.077447 -0.074496 -0.071843 -0.068721 -0.064094 -0.034657 -0.033083 -0.031142 -0.029764 -0.029298 -0.027888 -0.027102 
-0.080615 -0.080939 -0.082298 -0.082649 -0.081315 -0.080261 -0.078764 -0.074958 -0.044296 -0.041802 -0.039769 -0.038198 -0.037136 -0.035755 -0.034729 
-0.071101 -0.074289 -0.077106 -0.079053 -0.079733 -0.080638 -0.080115 -0.079265 -0.049316 -0.046555 -0.044861 -0.042963 -0.041468 -0.040648 -0.039818 
-0.057103 -0.062578 -0.066024 -0.068523 -0.071086 -0.072924 -0.074584 -0.075136 -0.049304 -0.047324 -0.045438 -0.044397 -0.042694 -0.042213 -0.041232 
-0.033848 -0.04138 -0.046588 -0.051198 -0.055201 -0.058484 -0.061417 -0.063467 -0.044853 -0.042727 -0.041375 -0.04025 -0.039097 -0.039003 -0.037759 
-0.007771 -0.016044 -0.022158 -0.028225 -0.033151 -0.037862 -0.041378 -0.046502 -0.03603 -0.034276 -0.033977 -0.032942 -0.031985 -0.031948 -0.031128 
0.014497 0.00672 0.001322 -0.003332 -0.008614 -0.01349 -0.018316 -0.02408 -0.023153 -0.022777 -0.022984 -0.023231 -0.021844 -0.021918 -0.02208 
0.038374 0.031238 0.026289 0.021537 0.015835 0.011013 0.006577 0.000596 -0.008235 -0.008252 -0.009262 -0.009738 -0.008892 -0.009462 -0.010168 
0.059844 0.053723 0.04902 0.044857 0.039571 0.034734 0.030533 0.024419 0.006944 0.00639 0.004714 0.004358 0.00427 0.003397 0.003178 
0.073982 0.06937 0.066186 0.063638 0.060145 0.056023 0.051286 0.046457 0.021738 0.020317 0.018328 0.017629 0.01706 0.016289 0.015994 
0.081923 0.079968 0.078427 0.07695 0.074436 0.071545 0.068297 0.064025 0.034631 0.032561 0.030722 0.029485 0.02854 0.027804 0.02694 
0.079555 0.080841 0.081193 0.081931 0.080749 0.07947 0.077915 0.074733 0.043666 0.041005 0.039273 0.037583 0.03628 0.035395 0.034644 
0.070689 0.074041 0.076642 0.078396 0.079151 0.080151 0.079315 0.078235 0.048618 0.045954 0.044092 0.042525 0.041354 0.040371 0.039353 
0.057942 0.063067 0.066639 0.069493 0.071278 0.073489 0.074365 0.074811 0.049254 0.04677 0.045675 0.044228 0.043035 0.04235 0.04106 
0.035033 0.04255 0.047763 0.052427 0.056025 0.058901 0.061698 0.064021 0.044973 0.042925 0.042038 0.040892 0.039062 0.038664 0.038234 
0.008049 0.016942 0.023176 0.028502 0.033482 0.038216 0.042079 0.046593 0.036158 0.034839 0.033965 0.033148 0.031908 0.031287 0.031287 
-0.015813 -0.00772 -0.002756 0.002789 0.008149 0.013745 0.018635 0.024638 0.023419 0.022536 0.023257 0.022308 0.02185 0.021875 0.021515 
-0.038663 -0.032177 -0.027315 -0.022513 -0.016965 -0.011793 -0.006616 -5e-05 0.008619 0.008878 0.009976 0.01002 0.009135 0.010242 0.009975 
-0.058893 -0.053213 -0.048656 -0.04482 -0.039877 -0.035307 -0.03058 -0.024469 -0.00645 -0.005046 -0.004286 -0.00326 -0.00349 -0.002666 -0.002578 
-0.074287 -0.069409 -0.066658 -0.064074 -0.059534 -0.055941 -0.051746 -0.046313 -0.021424 -0.020348 -0.018003 -0.017668 -0.017117 -0.01621 -0.01571 
-0.082396 -0.080206 -0.079047 -0.077553 -0.074535 -0.071878 -0.068797 -0.064123 -0.03475 -0.032892 -0.030418 -0.029669 -0.02906 -0.027551 -0.026686 
-0.080104 -0.081471 -0.082108 -0.082144 -0.081174 -0.080018 -0.078465 -0.075072 -0.044105 -0.041028 -0.039581 -0.0378 -0.036325 -0.035526 -0.03429 
-0.071949 -0.074687 -0.076766 -0.07931 -0.079594 -0.080105 -0.080221 -0.079102 -0.048933 -0.046891 -0.044966 -0.043402 -0.041928 -0.041064 -0.039697 
-0.057858 -0.062096 -0.065736 -0.068711 -0.071359 -0.073023 -0.074354 -0.075755 -0.049549 -0.047556 -0.046149 -0.044451 -0.043376 -0.042132 -0.041334 
-0.033032 -0.040663 -0.046199 -0.050413 -0.054598 -0.058015 -0.060845 -0.063514 -0.045066 -0.042367 -0.041816 -0.040136 -0.038885 -0.038545 -0.038093 
-0.007818 -0.015867 -0.021614 -0.027298 -0.031937 -0.036817 -0.04146 -0.045955 -0.035921 -0.034449 -0.034156 -0.033163 -0.032271 -0.031913 -0.031319 
0.013866 0.006598 0.001576 -0.00306 -0.008627 -0.013406 -0.018042 -0.024297 -0.023718 -0.02334 -0.023804 -0.023523 -0.022144 -0.022477 -0.021859 
0.039289 0.031621 0.026592 0.021445 0.015959 0.011289 0.006867 0.00051 -0.008811 -0.008966 -0.009922 -0.009992 -0.009072 -0.010464 -0.010485 
0.059755 0.054236 0.049713 0.04511 0.040209 0.035422 0.030928 0.024191 0.0069 0.006221 0.004321 0.00439 0.003637 0.003023 0.002199 
0.073401 0.069292 0.066501 0.064019 0.060034 0.056101 0.052529 0.046538 0.021815 0.020719 0.018325 0.017723 0.017504 0.016381 0.015484 
0.083478 0.080539 0.07936 0.077488 0.07474 0.072158 0.068858 0.06459 0.035253 0.033249 0.031226 0.029759 0.029644 0.027775 0.026714 
0.080334 0.081344 0.082158 0.082772 0.081287 0.080307 0.07813 0.07505 0.044478 0.04192 0.039726 0.037969 0.036858 0.035887 0.034798 
0.07031 0.072883 0.075729 0.07827 0.079072 0.079643 0.079843 0.079116 0.049114 0.046723 0.044925 0.043037 0.04196 0.041401 0.040475 
0.058229 0.062395 0.065889 0.068247 0.07088 0.072657 0.074012 0.075455 0.049945 0.047764 0.046565 0.045013 0.043581 0.042781 0.041867 
0.035042 0.042455 0.047408 0.051617 0.055364 0.058621 0.061394 0.063838 0.045281 0.043295 0.042401 0.041316 0.039695 0.039025 0.03837 
0.008479 0.016398 0.022451 0.028108 0.033076 0.037635 0.042003 0.045655 0.035419 0.034074 0.033649 0.033107 0.031986 0.032113 0.031418 
-0.015504 -0.007488 -0.002442 0.002857 0.008035 0.013149 0.017944 0.023084 0.02278 0.022259 0.022384 0.022035 0.021105 0.021544 0.021294 
-0.03964 -0.032464 -0.02713 -0.022347 -0.017084 -0.01197 -0.0068 -0.000285 0.008774 0.008488 0.009705 0.009505 0.00897 0.009337 0.009641 
-0.059748 -0.054313 -0.049297 -0.0455 -0.040247 -0.035706 -0.030874 -0.023849 -0.006591 -0.006225 -0.004514 -0.00387 -0.003787 -0.003155 -0.002701 
-0.075005 -0.07006 -0.066985 -0.064199 -0.060147 -0.056476 -0.052511 -0.046335 -0.022104 -0.020638 -0.018897 -0.01782 -0.017519 -0.016901 -0.015691 
-0.08224 -0.080599 -0.078367 -0.077404 -0.074499 -0.0722 -0.068664 -0.064237 -0.034736 -0.032899 -0.030444 -0.029243 -0.028697 -0.027838 -0.026506 
-0.079171 -0.081172 -0.081359 -0.082025 -0.080685 -0.08004 -0.078041 -0.075195 -0.043941 -0.041585 -0.038951 -0.037635 -0.036573 -0.035216 -0.034232 
-0.07196 -0.074983 -0.077549 -0.078852 -0.079739 -0.079793 -0.07989 -0.078778 -0.049668 -0.046972 -0.044865 -0.043458 -0.042179 -0.041015 -0.040061 
-0.057413 -0.063013 -0.066367 -0.069403 -0.071566 -0.073093 -0.074513 -0.075531 -0.049903 -0.047799 -0.046199 -0.04442 -0.043108 -0.042523 -0.041608 
-0.03233 -0.040184 -0.046173 -0.050698 -0.054596 -0.058468 -0.06154 -0.063962 -0.044521 -0.042724 -0.041658 -0.040329 -0.038856 -0.038442 -0.037518 
-0.00791 -0.015324 -0.022008 -0.026891 -0.032585 -0.036748 -0.041241 -0.045237 -0.035441 -0.033634 -0.033373 -0.032918 -0.031572 -0.031013 -0.030952 
0.013761 0.006643 0.001614 -0.003467 -0.008785 -0.013306 -0.018049 -0.023501 -0.023306 -0.022237 -0.022925 -0.022579 -0.021958 -0.021566 -0.021839 
0.03909 0.031897 0.02645 0.021456 0.016554 0.010997 0.006112 0.000122 -0.008429 -0.008827 -0.009706 -0.009762 -0.009459 -0.009823 -0.009406 
0.060708 0.054904 0.050036 0.045525 0.040359 0.035583 0.030643 0.023843 0.007115 0.005898 0.004662 0.003859 0.004176 0.003416 0.003053 
0.074686 0.070802 0.067678 0.064815 0.060447 0.056752 0.05234 0.046125 0.021963 0.020588 0.01852 0.017563 0.017066 0.016538 0.015275 
0.082184 0.080578 0.078659 0.077657 0.075059 0.072334 0.069026 0.064851 0.034615 0.032598 0.030774 0.029411 0.028751 0.027641 0.026562 
0.07872 0.080505 0.081233 0.081635 0.080678 0.079929 0.07831 0.075226 0.043444 0.040979 0.039123 0.037364 0.037068 0.0354 0.034108 
0.070469 0.074011 0.076417 0.078513 0.078667 0.079698 0.079605 0.078188 0.048812 0.046329 0.044063 0.042877 0.041725 0.040546 0.039293 
0.058051 0.062789 0.065852 0.06884 0.071196 0.072836 0.073998 0.075292 0.049507 0.047097 0.045545 0.044513 0.042823 0.042184 0.0415 
0.0344 0.041946 0.046858 0.051052 0.055645 0.058307 0.061138 0.06398 0.044699 0.042635 0.041733 0.040433 0.038918 0.038642 0.038128 
0.00782 0.016439 0.022066 0.027916 0.032947 0.03728 0.041828 0.04562 0.035424 0.033991 0.033427 0.032795 0.031258 0.030876 0.030647 
-0.01615 -0.008223 -0.002586 0.002744 0.008117 0.012862 0.018089 0.023393 0.022646 0.02205 0.022249 0.02212 0.02104 0.020747 0.021154 
-0.03954 -0.032223 -0.026778 -0.022341 -0.01672 -0.011789 -0.006695 -0.000604 0.008441 0.008517 0.009536 0.009555 0.008917 0.009592 0.009796 
-0.059821 -0.053768 -0.049555 -0.045585 -0.040319 -0.035388 -0.030503 -0.024343 -0.00664 -0.005666 -0.004301 -0.003746 -0.004086 -0.002914 -0.003076 
-0.074419 -0.070506 -0.067461 -0.064389 -0.060256 -0.056454 -0.052465 -0.046303 -0.021753 -0.020005 -0.018344 -0.017544 -0.017131 -0.016095 -0.015458 
-0.08094 -0.079925 -0.078803 -0.076671 -0.074133 -0.071584 -0.068741 -0.063984 -0.034236 -0.032167 -0.03027 -0.02888 -0.02812 -0.027177 -0.026083 
-0.078849 -0.080526 -0.081327 -0.081759 -0.080318 -0.07957 -0.07798 -0.074985 -0.043328 -0.040958 -0.039021 -0.037195 -0.036236 -0.035242 -0.034311 
-0.071726 -0.074842 -0.076394 -0.078781 -0.079375 -0.080062 -0.080525 -0.078802 -0.048757 -0.046524 -0.04435 -0.043242 -0.041804 -0.040627 -0.039692 
-0.057947 -0.063094 -0.06609 -0.069038 -0.071705 -0.072999 -0.074895 -0.075221 -0.049487 -0.047164 -0.045736 -0.044681 -0.043299 -0.042319 -0.041694 
-0.033416 -0.041551 -0.046697 -0.051496 -0.055603 -0.058489 -0.061385 -0.063604 -0.045021 -0.042707 -0.041908 -0.040494 -0.039376 -0.038841 -0.038348 
-0.007866 -0.016073 -0.021955 -0.027245 -0.032813 -0.037329 -0.041586 -0.045814 -0.036168 -0.034591 -0.033783 -0.033197 -0.031715 -0.031667 -0.031047 
0.014133 0.006983 0.001801 -0.003059 -0.008427 -0.013283 -0.017838 -0.024247 -0.023534 -0.022745 -0.023269 -0.023331 -0.021832 -0.022344 -0.021849 
0.039484 0.031972 0.0265 0.021533 0.01627 0.011532 0.007093 0.000306 -0.008642 -0.008695 -0.009885 -0.009904 -0.00937 -0.010096 -0.010047 
0.060674 0.054996 0.049481 0.045743 0.040225 0.035579 0.031107 0.024699 0.00634 0.005858 0.004696 0.003853 0.004292 0.003257 0.002943 
0.074151 0.070472 0.067402 0.064598 0.060367 0.056288 0.052525 0.046546 0.021746 0.02055 0.018645 0.017424 0.017448 0.016225 0.015607 
0.082275 0.080009 0.079521 0.078132 0.074997 0.072283 0.069188 0.064489 0.035319 0.033117 0.03113 0.030229 0.028776 0.027992 0.026853 
0.079158 0.080602 0.081955 0.082378 0.081368 0.080546 0.078557 0.075288 0.044196 0.041759 0.039661 0.038015 0.03674 0.035905 0.035112 
0.0704 0.074248 0.076642 0.077766 0.079326 0.080232 0.08005 0.079107 0.049309 0.046836 0.044707 0.043143 0.041873 0.04074 0.04016 
0.058082 0.063215 0.066086 0.069299 0.071059 0.073375 0.074595 0.075766 0.050096 0.047606 0.046158 0.045105 0.043319 0.042609 0.041553 
0.034762 0.042322 0.047594 0.052207 0.055366 0.05901 0.061847 0.063815 0.045565 0.042778 0.041944 0.040685 0.039532 0.039183 0.038442 
0.007423 0.015923 0.022988 0.027801 0.033204 0.037461 0.041647 0.046001 0.03592 0.034007 0.033866 0.033089 0.031944 0.031638 0.030848 
-0.016716 -0.008957 -0.002897 0.002764 0.008197 0.012726 0.017474 0.023928 0.022478 0.022555 0.022816 0.022395 0.021311 0.021508 0.02088 
-0.039486 -0.032735 -0.02757 -0.022738 -0.017242 -0.012374 -0.007289 -0.000744 0.007964 0.008246 0.008985 0.009394 0.009071 0.009713 0.009996 
-0.059314 -0.053776 -0.049519 -0.045551 -0.040508 -0.036097 -0.031242 -0.025076 -0.00699 -0.006488 -0.005136 -0.003733 -0.003622 -0.003247 -0.002827 
-0.0742 -0.070165 -0.067435 -0.063972 -0.060126 -0.056671 -0.052318 -0.047299 -0.021949 -0.020601 -0.018743 -0.017784 -0.017344 -0.016895 -0.016051 
-0.081997 -0.080262 -0.079148 -0.077753 -0.074627 -0.07214 -0.068835 -0.064094 -0.034614 -0.033065 -0.03062 -0.029605 -0.028738 -0.027737 -0.026626 
-0.079846 -0.081033 -0.081867 -0.082583 -0.081284 -0.080035 -0.078375 -0.074788 -0.043826 -0.041327 -0.039408 -0.037843 -0.036527 -0.035478 -0.034323 
-0.07183 -0.074902 -0.077332 -0.079385 -0.079918 -0.080374 -0.080076 -0.0793 -0.049395 -0.046408 -0.04501 -0.043768 -0.042326 -0.041129 -0.040013 
-0.057598 -0.062476 -0.066636 -0.069436 -0.071472 -0.073487 -0.074798 -0.075572 -0.050012 -0.047357 -0.045844 -0.044522 -0.043335 -0.041854 -0.04181 
-0.032448 -0.040387 -0.04617 -0.050592 -0.054682 -0.058218 -0.060986 -0.06371 -0.044655 -0.042459 -0.041399 -0.03985 -0.038832 -0.037996 -0.037344 
-0.006732 -0.015491 -0.021206 -0.026963 -0.031897 -0.036875 -0.040501 -0.045244 -0.035063 -0.033974 -0.03335 -0.032493 -0.031512 -0.031162 -0.030172 
0.014902 0.007175 0.002017 -0.003131 -0.00822 -0.012932 -0.017841 -0.023663 -0.023113 -0.022561 -0.022918 -0.022278 -0.021684 -0.021557 -0.022058 
0.039667 0.032134 0.026622 0.02174 0.016575 0.011915 0.006506 4.1e-05 -0.008875 -0.008794 -0.00999 -0.009701 -0.00909 -0.009847 -0.01012 
0.06073 0.054958 0.049919 0.045701 0.041087 0.035866 0.031037 0.025095 0.00693 0.006106 0.005008 0.003729 0.004351 0.003649 0.00311 
0.07405 0.070257 0.067684 0.064558 0.060448 0.056642 0.052188 0.04703 0.022584 0.021022 0.019221 0.017615 0.017101 0.016499 0.015524 
0.081652 0.079493 0.079141 0.077086 0.074284 0.071723 0.068575 0.064737 0.035387 0.032952 0.030852 0.029622 0.028781 0.027437 0.026878 
0.07889 0.080341 0.081253 0.081745 0.08112 0.079559 0.078107 0.075855 0.043975 0.041478 0.039756 0.038081 0.037209 0.036097 0.034712 
0.070408 0.073764 0.076116 0.078129 0.079085 0.079739 0.079519 0.078435 0.049265 0.046893 0.04489 0.043425 0.041829 0.040785 0.039802 
0.05791 0.062433 0.065653 0.068658 0.070522 0.072923 0.074137 0.074773 0.049839 0.047319 0.046155 0.044787 0.043305 0.042115 0.041579 
0.034881 0.042607 0.047153 0.051893 0.055083 0.058948 0.061208 0.063744 0.04475 0.042805 0.04248 0.041117 0.039839 0.039023 0.038444 
0.007972 0.016665 0.022893 0.027963 0.032895 0.037893 0.041455 0.045567 0.035517 0.033864 0.033246 0.032865 0.031637 0.031057 0.031508 
-0.016104 -0.008191 -0.002529 0.002854 0.008169 0.013252 0.018203 0.0229 0.022812 0.021799 0.022141 0.022022 0.020876 0.021076 0.021196 
-0.039461 -0.031899 -0.027387 -0.021886 -0.016566 -0.011846 -0.006724 -0.001612 0.00803 0.008593 0.009529 0.009542 0.008603 0.009436 0.00949 
-0.060216 -0.053838 -0.049746 -0.045532 -0.040102 -0.035723 -0.030882 -0.024795 -0.007606 -0.006433 -0.005653 -0.004608 -0.004663 -0.003805 -0.00292 
-0.075169 -0.070518 -0.067319 -0.06473 -0.060596 -0.056721 -0.052224 -0.046576 -0.022628 -0.021178 -0.019432 -0.01837 -0.017836 -0.016936 -0.015957 
-0.081754 -0.080329 -0.078697 -0.0776 -0.074796 -0.072287 -0.068727 -0.064256 -0.034906 -0.03256 -0.030611 -0.029648 -0.028933 -0.027725 -0.026654 
-0.078853 -0.080938 -0.081705 -0.081516 -0.080511 -0.079821 -0.077941 -0.074701 -0.044105 -0.041574 -0.039799 -0.037974 -0.036781 -0.035667 -0.034658 
-0.071116 -0.074328 -0.076769 -0.078327 -0.079289 -0.080114 -0.080153 -0.078902 -0.049521 -0.047145 -0.045138 -0.043637 -0.041922 -0.041463 -0.040467 
-0.057671 -0.062486 -0.065862 -0.069526 -0.071302 -0.073273 -0.07494 -0.075121 -0.049806 -0.047334 -0.045944 -0.044968 -0.043591 -0.042718 -0.04198 
-0.033557 -0.041065 -0.046566 -0.051088 -0.054889 -0.058207 -0.061171 -0.063036 -0.044303 -0.042292 -0.041695 -0.040102 -0.039414 -0.038312 -0.037924 
-0.007917 -0.015941 -0.021809 -0.027172 -0.032552 -0.037306 -0.041217 -0.045537 -0.03503 -0.033463 -0.033249 -0.032085 -0.031255 -0.030801 -0.030641 
0.01396 0.00627 0.001916 -0.003586 -0.008706 -0.01356 -0.018155 -0.023753 -0.02335 -0.022453 -0.02242 -0.022441 -0.02144 -0.021578 -0.0218 
0.039209 0.031478 0.026417 0.021641 0.015823 0.011494 0.006452 0.000529 -0.00798 -0.008524 -0.009139 -0.009487 -0.0088 -0.009673 -0.009909 
0.060924 0.05475 0.049741 0.04572 0.039761 0.035685 0.030766 0.024673 0.007476 0.006465 0.004977 0.004472 0.00495 0.004115 0.003316 
0.074296 0.070238 0.067196 0.06459 0.060015 0.05656 0.052623 0.046643 0.021447 0.020376 0.018517 0.017517 0.017605 0.01706 0.015669 
0.082931 0.080967 0.079417 0.078174 0.075124 0.072376 0.069486 0.064188 0.035261 0.032982 0.031178 0.029453 0.028794 0.028112 0.026941 
0.079966 0.081407 0.082396 0.082552 0.081824 0.080564 0.078662 0.075046 0.044411 0.041459 0.039762 0.037703 0.036959 0.035752 0.034827 
0.069959 0.073558 0.076129 0.078205 0.079126 0.08009 0.079974 0.078744 0.048594 0.046237 0.04418 0.042487 0.041719 0.040177 0.039447 
0.057768 0.062527 0.065768 0.068968 0.070824 0.07278 0.074135 0.075101 0.0495 0.047326 0.045672 0.04421 0.042934 0.041826 0.041153 
0.034587 0.04225 0.047661 0.05189 0.055892 0.058468 0.060991 0.063365 0.044781 0.042472 0.041497 0.040093 0.038891 0.038361 0.037852 
0.007482 0.016127 0.022304 0.028106 0.03335 0.037714 0.041672 0.045909 0.035305 0.033944 0.033378 0.032261 0.030766 0.03125 0.030773 
-0.016054 -0.008572 -0.00303 0.002709 0.008076 0.013471 0.017935 0.024236 0.022649 0.022363 0.022938 0.022528 0.021097 0.021598 0.021144 
-0.039524 -0.032261 -0.027264 -0.022506 -0.016962 -0.012106 -0.007155 -0.000874 0.008024 0.008208 0.00917 0.009461 0.009275 0.009341 0.009395 
-0.059977 -0.05393 -0.049703 -0.045579 -0.040698 -0.035851 -0.031085 -0.025071 -0.007271 -0.006389 -0.004969 -0.004414 -0.004451 -0.003808 -0.003097 
-0.075305 -0.071039 -0.067728 -0.065264 -0.060787 -0.056383 -0.052817 -0.046508 -0.022133 -0.020773 -0.018795 -0.017908 -0.017824 -0.017152 -0.015864 
-0.08246 -0.080628 -0.079278 -0.078288 -0.074639 -0.072564 -0.068996 -0.06387 -0.034245 -0.03249 -0.030995 -0.029772 -0.028808 -0.027788 -0.026709 
-0.079074 -0.080939 -0.081742 -0.081778 -0.080691 -0.080266 -0.078173 -0.074643 -0.043526 -0.041085 -0.038954 -0.037428 -0.036304 -0.035291 -0.034293 
-0.070989 -0.074719 -0.076774 -0.078588 -0.079468 -0.079887 -0.080207 -0.078789 -0.049027 -0.04658 -0.044059 -0.042479 -0.041142 -0.040683 -0.039481 
-0.056966 -0.0623 -0.066007 -0.06913 -0.071184 -0.073302 -0.074149 -0.075042 -0.048971 -0.0469 -0.045341 -0.043696 -0.042281 -0.041638 -0.040672 
-0.032658 -0.040479 -0.046405 -0.050815 -0.054773 -0.058316 -0.060979 -0.063233 -0.044334 -0.042302 -0.041335 -0.039476 -0.03827 -0.038151 -0.036965 
-0.00719 -0.015196 -0.021591 -0.027043 -0.032188 -0.036695 -0.041134 -0.045659 -0.035463 -0.03367 -0.033522 -0.032482 -0.031171 -0.031171 -0.030649 
0.015026 0.007715 0.002518 -0.002578 -0.007728 -0.012982 -0.017488 -0.023727 -0.02321 -0.02215 -0.02282 -0.022461 -0.021633 -0.021209 -0.021758 
0.039652 0.032194 0.027355 0.022527 0.017056 0.011788 0.007022 0.000585 -0.008782 -0.008626 -0.009617 -0.009344 -0.009249 -0.009374 -0.009701 
0.060603 0.05458 0.050209 0.045988 0.04067 0.035771 0.031585 0.02487 0.007195 0.006289 0.004828 0.004414 0.004061 0.003607 0.003145 
0.073995 0.070241 0.067352 0.064645 0.060367 0.056815 0.052777 0.046643 0.022315 0.020494 0.01867 0.017808 0.017071 0.016729 0.015742 
0.082254 0.080641 0.079232 0.077708 0.074804 0.072921 0.068952 0.063892 0.034977 0.033018 0.030675 0.029544 0.028817 0.027657 0.026838 
0.079543 0.081454 0.081975 0.082092 0.081348 0.080166 0.078589 0.075367 0.044348 0.04229 0.039467 0.037949 0.03709 0.035236 0.03464 
0.069884 0.07372 0.075934 0.077817 0.078996 0.079352 0.079866 0.079153 0.049051 0.04659 0.044544 0.043013 0.041703 0.040807 0.039919 
0.057291 0.061661 0.064982 0.067813 0.070279 0.072472 0.073946 0.074751 0.049361 0.046958 0.04581 0.044564 0.042919 0.042593 0.041474 
0.034575 0.041599 0.046726 0.050928 0.054799 0.057994 0.060699 0.063121 0.045036 0.042753 0.04169 0.040982 0.039176 0.038855 0.037802 
0.007801 0.016097 0.02244 0.027728 0.032562 0.03719 0.041094 0.045256 0.035413 0.033672 0.033403 0.032541 0.031248 0.031419 0.030695 
-0.015989 -0.008668 -0.002888 0.002478 0.007609 0.012897 0.017846 0.023383 0.022681 0.02221 0.023045 0.021923 0.021354 0.021401 0.02146 
-0.039807 -0.032554 -0.027778 -0.022618 -0.017421 -0.012241 -0.007348 -0.0007 0.008539 0.008712 0.009749 0.009974 0.009499 0.009618 0.010086 
-0.060579 -0.054036 -0.049926 -0.045937 -0.040758 -0.035979 -0.031648 -0.024843 -0.007085 -0.006435 -0.004984 -0.003929 -0.004227 -0.003592 -0.002882 
-0.074609 -0.070548 -0.06717 -0.064683 -0.060363 -0.056849 -0.052338 -0.0466 -0.022176 -0.020883 -0.018636 -0.01802 -0.017623 -0.016729 -0.015822 
-0.08178 -0.080059 -0.078455 -0.077061 -0.074758 -0.072011 -0.068421 -0.064487 -0.03458 -0.03289 -0.030845 -0.029535 -0.028743 -0.02735 -0.026828 
-0.080543 -0.080968 -0.081654 -0.08198 -0.081257 -0.080021 -0.078515 -0.0753 -0.044092 -0.041509 -0.039768 -0.038027 -0.036892 -0.035524 -0.034849 
-0.071848 -0.074941 -0.077113 -0.079118 -0.079497 -0.080459 -0.080757 -0.078881 -0.049438 -0.046762 -0.044592 -0.043431 -0.04186 -0.040979 -0.040048 
-0.05619 -0.061574 -0.065343 -0.068543 -0.07091 -0.072822 -0.074597 -0.07567 -0.04966 -0.047549 -0.045694 -0.044441 -0.04306 -0.042154 -0.041473 
-0.032182 -0.039635 -0.045207 -0.050081 -0.054147 -0.057986 -0.060578 -0.063158 -0.045034 -0.04282 -0.041666 -0.040612 -0.038997 -0.038585 -0.037946 
-0.007331 -0.01556 -0.021381 -0.026771 -0.03151 -0.036565 -0.040609 -0.044846 -0.035783 -0.034555 -0.033661 -0.033284 -0.031539 -0.031654 -0.031343 
0.014689 0.007061 0.001908 -0.002669 -0.007982 -0.012068 -0.017579 -0.023956 -0.02371 -0.023242 -0.023156 -0.02308 -0.02239 -0.022143 -0.022315 
0.039532 0.031707 0.02645 0.022042 0.016451 0.011767 0.006865 0.000234 -0.00922 -0.008699 -0.009986 -0.009919 -0.009754 -0.010034 -0.010337 
0.060906 0.054205 0.049353 0.045771 0.040316 0.035517 0.030955 0.024944 0.007188 0.006315 0.004378 0.0041 0.004168 0.003071 0.002799 
0.074962 0.070414 0.067293 0.064699 0.060363 0.05683 0.052331 0.047122 0.022346 0.02056 0.018804 0.017524 0.01713 0.016203 0.015693 
0.082696 0.080456 0.079301 0.07741 0.075072 0.072127 0.069234 0.064667 0.035146 0.033101 0.030933 0.029579 0.028969 0.027857 0.026798 
0.079059 0.080843 0.08166 0.082022 0.081067 0.079964 0.078673 0.07541 0.044292 0.041588 0.039204 0.038113 0.03726 0.035811 0.034794 
0.070566 0.074268 0.076558 0.078387 0.079178 0.079789 0.079679 0.078624 0.04897 0.046513 0.044683 0.043155 0.041876 0.040687 0.040095 
0.057629 0.062624 0.066157 0.068776 0.071561 0.073097 0.074338 0.074901 0.049697 0.047531 0.045873 0.044361 0.043298 0.042333 0.041659 
0.03341 0.041638 0.046744 0.051646 0.055268 0.058758 0.061455 0.063885 0.044705 0.0427 0.041833 0.040322 0.039561 0.038843 0.038189 
0.007073 0.015673 0.021724 0.027687 0.032452 0.037325 0.041144 0.045528 0.035359 0.034002 0.033758 0.032722 0.031221 0.031325 0.031034 
-0.016544 -0.00898 -0.003102 0.002036 0.007855 0.012845 0.01758 0.023392 0.023543 0.022937 0.022528 0.022415 0.021252 0.021656 0.021376 
-0.039523 -0.032556 -0.027506 -0.023185 -0.017603 -0.012554 -0.007336 -0.000338 0.008539 0.009186 0.009399 0.009563 0.009645 0.009715 0.009729 
-0.059819 -0.054261 -0.049841 -0.046268 -0.041177 -0.036056 -0.031579 -0.024894 -0.00744 -0.005902 -0.004641 -0.004072 -0.004196 -0.003589 -0.002874 
-0.075598 -0.070902 -0.067523 -0.064972 -0.060778 -0.056689 -0.052937 -0.047384 -0.022488 -0.021074 -0.018699 -0.01787 -0.017673 -0.017119 -0.015741 
-0.082359 -0.080182 -0.07887 -0.077437 -0.075016 -0.072627 -0.06955 -0.064898 -0.035089 -0.033329 -0.030887 -0.029665 -0.028879 -0.028654 -0.026814 
-0.079616 -0.081068 -0.081654 -0.081497 -0.080946 -0.080102 -0.078189 -0.075235 -0.043523 -0.041252 -0.039256 -0.037697 -0.03716 -0.035923 -0.034461 
-0.071932 -0.074999 -0.077019 -0.078609 -0.079398 -0.080157 -0.079516 -0.07842 -0.048825 -0.0466 -0.044366 -0.043121 -0.042075 -0.040704 -0.039563 
-0.056603 -0.062131 -0.06577 -0.068909 -0.071131 -0.073131 -0.074156 -0.074752 -0.04968 -0.04699 -0.045577 -0.044032 -0.042833 -0.041794 -0.041138 
-0.031726 -0.039885 -0.045596 -0.050047 -0.054031 -0.05763 -0.060315 -0.063288 -0.044252 -0.041839 -0.041048 -0.039612 -0.038436 -0.037434 -0.037707 
-0.007398 -0.014934 -0.021139 -0.0263 -0.031314 -0.036304 -0.04053 -0.045125 -0.034917 -0.033936 -0.033294 -0.032578 -0.030966 -0.030708 -0.030757 
0.01462 0.007465 0.002416 -0.002425 -0.007838 -0.012679 -0.017485 -0.022996 -0.022762 -0.022489 -0.022955 -0.022423 -0.021461 -0.021603 -0.021338 
0.040031 0.032323 0.027049 0.022282 0.016643 0.01186 0.007317 0.000854 -0.008239 -0.008641 -0.009465 -0.009464 -0.009159 -0.009663 -0.009971 
0.060543 0.054585 0.049701 0.045366 0.040365 0.035534 0.030885 0.025022 0.006907 0.005845 0.004547 0.004113 0.004215 0.0035 0.002533 
0.074314 0.069821 0.067183 0.063867 0.060118 0.056253 0.052322 0.047147 0.022362 0.020971 0.018753 0.017966 0.017466 0.016913 0.015651 
0.0827 0.080181 0.079225 0.077421 0.074666 0.072076 0.069284 0.064315 0.035248 0.033202 0.031219 0.029565 0.028795 0.028107 0.026925 
0.079389 0.081023 0.081678 0.082266 0.081061 0.080246 0.078202 0.074835 0.043678 0.041141 0.039125 0.037507 0.036537 0.035789 0.034862 
0.070802 0.074004 0.076363 0.078351 0.079204 0.080381 0.079881 0.078442 0.049206 0.04635 0.044378 0.043031 0.041735 0.040558 0.039949 
0.057372 0.06199 0.065637 0.068508 0.070823 0.072845 0.074474 0.075021 0.049503 0.047272 0.046007 0.044329 0.043048 0.041905 0.041404 
0.034034 0.041817 0.046714 0.05093 0.054755 0.057801 0.060951 0.063378 0.044365 0.042674 0.04173 0.040546 0.039217 0.038809 0.038393 
0.007867 0.016373 0.022207 0.027552 0.03268 0.037366 0.0413 0.04518 0.035626 0.033781 0.033401 0.033016 0.031534 0.031591 0.030881 
-0.017589 -0.009351 -0.003449 0.002533 0.008102 0.012847 0.017458 0.023113 0.022417 0.022014 0.022048 0.021931 0.020901 0.021157 0.020698 
-0.040256 -0.032939 -0.028026 -0.02272 -0.017225 -0.012765 -0.008035 -0.001432 0.007646 0.008163 0.009094 0.009079 0.008728 0.008958 0.009563 
-0.059509 -0.053944 -0.050011 -0.045785 -0.040858 -0.036075 -0.031719 -0.025182 -0.007237 -0.006601 -0.004469 -0.004118 -0.004488 -0.003534 -0.003082 
-0.075189 -0.070971 -0.067806 -0.064915 -0.06057 -0.056523 -0.052689 -0.04684 -0.022701 -0.020815 -0.019107 -0.018182 -0.01787 -0.016614 -0.01603 
-0.081602 -0.080034 -0.078701 -0.077725 -0.074617 -0.072038 -0.069206 -0.064719 -0.035201 -0.032989 -0.031308 -0.030041 -0.028857 -0.028075 -0.026823 
-0.079281 -0.080528 -0.081538 -0.081863 -0.081055 -0.080328 -0.078254 -0.075053 -0.04358 -0.041401 -0.039259 -0.037615 -0.036684 -0.035646 -0.034765 
-0.071764 -0.074754 -0.077068 -0.078984 -0.079857 -0.080722 -0.080121 -0.078507 -0.0489 -0.046551 -0.044661 -0.043382 -0.04168 -0.040721 -0.03997 
-0.056327 -0.061851 -0.065407 -0.069079 -0.071122 -0.072999 -0.074683 -0.075071 -0.049339 -0.04712 -0.045719 -0.044562 -0.042524 -0.041801 -0.041102 
-0.032036 -0.039899 -0.045533 -0.050341 -0.054309 -0.057768 -0.060584 -0.062959 -0.044102 -0.04155 -0.040957 -0.039264 -0.038175 -0.037777 -0.037304 
-0.007367 -0.015053 -0.021216 -0.026859 -0.032042 -0.036562 -0.040531 -0.044851 -0.035218 -0.033337 -0.032626 -0.03194 -0.030777 -0.030835 -0.030593 
0.015343 0.008066 0.002666 -0.002828 -0.007615 -0.01227 -0.017558 -0.02296 -0.022716 -0.022148 -0.02211 -0.021951 -0.021027 -0.021107 -0.02123 
0.039751 0.032406 0.027319 0.022267 0.017202 0.012276 0.007066 0.001394 -0.00782 -0.00775 -0.00923 -0.008955 -0.008565 -0.009341 -0.009267 
0.060172 0.05419 0.050269 0.045974 0.040514 0.03581 0.031076 0.024552 0.006914 0.006305 0.00479 0.004492 0.004332 0.003368 0.003215 
0.075165 0.070566 0.067884 0.065342 0.060985 0.056823 0.052697 0.046091 0.022248 0.020561 0.01867 0.018247 0.017212 0.016719 0.015932 
0.082662 0.080776 0.079406 0.078244 0.075297 0.072415 0.069296 0.064978 0.035691 0.033146 0.031225 0.029759 0.028828 0.027744 0.027113 
0.07882 0.080574 0.081356 0.081751 0.080711 0.080268 0.078406 0.075804 0.044132 0.041365 0.039953 0.037942 0.036958 0.035478 0.034778 
0.070791 0.074099 0.076191 0.078602 0.07922 0.080035 0.080338 0.078363 0.048704 0.046171 0.044533 0.043087 0.042029 0.040954 0.039797 
0.057304 0.062477 0.066003 0.069309 0.070965 0.07281 0.074648 0.074892 0.04918 0.046622 0.04539 0.043667 0.042773 0.041986 0.040997 
0.034441 0.041667 0.046745 0.051115 0.054713 0.05865 0.061205 0.063557 0.044743 0.042437 0.041467 0.040045 0.038915 0.038174 0.037559 
0.008045 0.015962 0.021704 0.027596 0.032525 0.037395 0.041595 0.045271 0.035498 0.033751 0.033295 0.032392 0.031366 0.031206 0.030611 
-0.017925 -0.009943 -0.003893 0.001895 0.00725 0.012172 0.017454 0.023226 0.022386 0.02135 0.021885 0.0214 0.020211 0.020843 0.020465 
-0.03997 -0.033128 -0.027905 -0.023482 -0.017586 -0.012907 -0.007695 -0.001435 0.007495 0.008029 0.008689 0.008898 0.008106 0.008801 0.009179 
-0.058938 -0.053127 -0.048818 -0.045507 -0.039965 -0.035842 -0.031258 -0.025855 -0.007512 -0.006465 -0.005009 -0.004526 -0.004479 -0.003694 -0.002882 
-0.075639 -0.07067 -0.067527 -0.064384 -0.060165 -0.056262 -0.052592 -0.047046 -0.022253 -0.021253 -0.019218 -0.018287 -0.017775 -0.017158 -0.016404 
-0.082918 -0.080667 -0.07984 -0.077833 -0.075383 -0.072164 -0.069342 -0.064406 -0.035621 -0.033192 -0.03154 -0.03011 -0.029176 -0.028453 -0.027643 
-0.079701 -0.08091 -0.081672 -0.082528 -0.081537 -0.07997 -0.078888 -0.075622 -0.044721 -0.042076 -0.039838 -0.038243 -0.037536 -0.035947 -0.035217 
-0.071067 -0.074604 -0.076665 -0.079015 -0.079331 -0.079759 -0.079996 -0.079149 -0.049113 -0.047015 -0.044894 -0.043567 -0.042211 -0.04093 -0.04006 
-0.056339 -0.06168 -0.065221 -0.068229 -0.070614 -0.072628 -0.073633 -0.074931 -0.04905 -0.046652 -0.045813 -0.044335 -0.042673 -0.042025 -0.040717 
-0.033076 -0.040522 -0.045613 -0.04986 -0.054219 -0.05777 -0.060358 -0.062521 -0.044159 -0.041843 -0.041428 -0.039875 -0.03891 -0.038302 -0.037389 
-0.00769 -0.015991 -0.021937 -0.026989 -0.032153 -0.037043 -0.040662 -0.045125 -0.035652 -0.033891 -0.033649 -0.032953 -0.03159 -0.031385 -0.031122 
0.015197 0.00736 0.002205 -0.003257 -0.008264 -0.013469 -0.017941 -0.023562 -0.02314 -0.022608 -0.022986 -0.022319 -0.021517 -0.021863 -0.021659 
0.039467 0.031745 0.026729 0.021936 0.016824 0.011387 0.006736 0.001662 -0.007914 -0.007996 -0.009181 -0.00879 -0.009043 -0.009395 -0.009713 
0.06075 0.054455 0.049913 0.046118 0.040801 0.035696 0.031645 0.02513 0.007448 0.006818 0.005316 0.004881 0.00474 0.004127 0.003421 
0.074968 0.071384 0.068315 0.065174 0.060709 0.057138 0.052732 0.046971 0.022791 0.021053 0.019163 0.018661 0.01845 0.016864 0.016602 
0.082506 0.081143 0.07932 0.077891 0.075162 0.072589 0.069225 0.065383 0.035788 0.034062 0.031187 0.030194 0.029438 0.0281 0.027388 
0.079018 0.080766 0.081275 0.082065 0.08143 0.080057 0.078538 0.075346 0.044356 0.041972 0.039732 0.038186 0.037306 0.036086 0.034861 
0.069537 0.07349 0.075695 0.078088 0.07889 0.079878 0.079215 0.078831 0.049062 0.046408 0.045022 0.043311 0.042529 0.040946 0.040202 
0.057013 0.061769 0.065151 0.068094 0.070151 0.072386 0.073687 0.075161 0.049512 0.047882 0.046434 0.044571 0.043134 0.04262 0.041901 
0.034535 0.041912 0.047245 0.051054 0.055043 0.058104 0.06074 0.063297 0.04483 0.042909 0.042671 0.041097 0.039434 0.039282 0.038565 
0.007445 0.015824 0.022134 0.027562 0.032701 0.037483 0.040804 0.045697 0.03548 0.03401 0.034106 0.03318 0.0316 0.031534 0.03142 
-0.016967 -0.009676 -0.003694 0.001903 0.007336 0.012141 0.017223 0.023007 0.022799 0.02259 0.022491 0.021823 0.020772 0.020988 0.0214 
-0.040187 -0.032787 -0.028007 -0.022924 -0.0175 -0.013135 -0.008019 -0.001666 0.007905 0.007972 0.009096 0.008719 0.009021 0.009151 0.009512 
-0.060456 -0.054581 -0.050296 -0.046219 -0.041135 -0.036294 -0.031672 -0.025384 -0.007773 -0.006971 -0.005246 -0.004843 -0.004499 -0.003697 -0.003565 
-0.075046 -0.071509 -0.067703 -0.065433 -0.061155 -0.057332 -0.05268 -0.047432 -0.022846 -0.021277 -0.01922 -0.018529 -0.01797 -0.017148 -0.016601 
-0.081875 -0.080307 -0.078666 -0.077479 -0.075196 -0.072547 -0.069447 -0.065145 -0.035546 -0.033596 -0.031562 -0.030167 -0.029152 -0.028025 -0.027167 
-0.079233 -0.080684 -0.08132 -0.081951 -0.08126 -0.079844 -0.078309 -0.07579 -0.044115 -0.041909 -0.040222 -0.038308 -0.037436 -0.035617 -0.034976 
-0.07121 -0.074379 -0.07664 -0.078979 -0.079246 -0.079936 -0.080067 -0.07888 -0.049265 -0.047062 -0.044617 -0.04376 -0.04216 -0.041014 -0.040379 
-0.056587 -0.061759 -0.065469 -0.068447 -0.070609 -0.072746 -0.074391 -0.074776 -0.05001 -0.047671 -0.045515 -0.044653 -0.043156 -0.042239 -0.04169 
-0.031606 -0.03969 -0.045208 -0.050237 -0.054019 -0.05778 -0.060061 -0.063223 -0.044383 -0.04249 -0.041508 -0.040089 -0.038958 -0.038166 -0.037961 
-0.006477 -0.014654 -0.020812 -0.026563 -0.031612 -0.036226 -0.03996 -0.045107 -0.034852 -0.033753 -0.032932 -0.032439 -0.031165 -0.030963 -0.030913 
0.01559 0.00808 0.002673 -0.001875 -0.007759 -0.012137 -0.01666 -0.022577 -0.022287 -0.021846 -0.022249 -0.021703 -0.021102 -0.021203 -0.021138 
0.040327 0.032971 0.027515 0.02276 0.01734 0.012544 0.007792 0.002139 -0.007017 -0.007489 -0.009317 -0.00831 -0.008345 -0.008723 -0.008836 
0.060973 0.055238 0.050489 0.046252 0.041189 0.036757 0.03159 0.025997 0.007793 0.006853 0.005562 0.004834 0.004532 0.004413 0.0036 
0.074797 0.071008 0.067995 0.065343 0.060966 0.05751 0.053042 0.046895 0.022242 0.021073 0.019474 0.017989 0.017883 0.017083 0.016088 
0.082236 0.080656 0.079277 0.077878 0.075421 0.072648 0.069264 0.063947 0.035015 0.033344 0.030546 0.029982 0.029679 0.028059 0.027201 
0.079005 0.080312 0.081163 0.081842 0.081004 0.080076 0.078195 0.074792 0.043612 0.041384 0.038597 0.037711 0.036329 0.035624 0.034477 
0.069621 0.073257 0.075635 0.078016 0.078573 0.079639 0.079634 0.078321 0.048922 0.046284 0.04406 0.042606 0.041087 0.040161 0.039487 
0.055851 0.061261 0.064583 0.067861 0.070164 0.07195 0.074009 0.075119 0.049288 0.046983 0.04587 0.044066 0.042972 0.041704 0.041053 
0.034097 0.040995 0.046062 0.050639 0.054339 0.057268 0.060863 0.063394 0.044335 0.042559 0.041619 0.040544 0.039197 0.038744 0.038039 
0.008186 0.016045 0.022204 0.027615 0.032744 0.037091 0.041086 0.04471 0.03582 0.034339 0.033187 0.032913 0.03185 0.031401 0.0314 
-0.016883 -0.009039 -0.003223 0.002011 0.007987 0.012707 0.017407 0.023301 0.023192 0.022208 0.02271 0.021776 0.021069 0.021187 0.020982 
-0.039924 -0.033087 -0.027769 -0.022868 -0.017472 -0.012487 -0.007733 -0.000726 0.008263 0.007897 0.00919 0.009579 0.008249 0.00897 0.009252 
-0.060311 -0.054477 -0.050102 -0.045681 -0.04074 -0.036007 -0.031664 -0.025085 -0.00706 -0.006565 -0.005192 -0.004037 -0.004553 -0.003989 -0.003065 
-0.07558 -0.070849 -0.0683 -0.065155 -0.060743 -0.056996 -0.052916 -0.046747 -0.022398 -0.021077 -0.018737 -0.018309 -0.017528 -0.017064 -0.015924 
-0.082101 -0.080286 -0.07914 -0.078014 -0.075225 -0.072295 -0.069676 -0.064919 -0.035701 -0.03337 -0.030983 -0.029323 -0.028814 -0.028383 -0.026816 
-0.079276 -0.081045 -0.0815 -0.082322 -0.08136 -0.080169 -0.078706 -0.076164 -0.044809 -0.041923 -0.039562 -0.038055 -0.037056 -0.03602 -0.035274 
-0.07113 -0.074419 -0.076714 -0.078619 -0.079298 -0.080448 -0.080124 -0.079065 -0.049309 -0.047071 -0.0447 -0.043934 -0.042406 -0.041275 -0.040414 
-0.056342 -0.061413 -0.065017 -0.068372 -0.070433 -0.072831 -0.074453 -0.074857 -0.04952 -0.047314 -0.045838 -0.044447 -0.043152 -0.042325 -0.041163 
-0.031909 -0.039621 -0.045082 -0.050473 -0.054075 -0.057471 -0.060453 -0.063192 -0.044286 -0.042241 -0.041288 -0.040321 -0.038497 -0.03789 -0.037679 
-0.00736 -0.015295 -0.021201 -0.026696 -0.03192 -0.036438 -0.040673 -0.044811 -0.035023 -0.033792 -0.033101 -0.03289 -0.03102 -0.030919 -0.030669 
0.015077 0.007511 0.002396 -0.0023 -0.008093 -0.012807 -0.017869 -0.02276 -0.023044 -0.022283 -0.02252 -0.022423 -0.021281 -0.021491 -0.021334 
0.040516 0.033005 0.027724 0.022776 0.017108 0.012263 0.007414 0.001077 -0.007427 -0.007869 -0.009184 -0.008881 -0.008342 -0.009249 -0.009336 
0.061172 0.055215 0.050961 0.046447 0.041176 0.036471 0.031982 0.025528 0.008019 0.007012 0.005352 0.00506 0.005142 0.004111 0.003621 
0.074837 0.070816 0.067986 0.065053 0.060693 0.057117 0.053226 0.047628 0.022068 0.021194 0.018947 0.01812 0.01773 0.017194 0.015682 
0.082282 0.080782 0.079254 0.078025 0.075133 0.072444 0.069886 0.064904 0.035003 0.033268 0.030425 0.029895 0.028975 0.028155 0.027108 
0.079242 0.080997 0.081862 0.082137 0.081273 0.080235 0.078814 0.074978 0.043492 0.041036 0.039209 0.037648 0.036897 0.035536 0.035104 
0.07049 0.074257 0.076607 0.078315 0.07899 0.080188 0.079798 0.077731 0.048357 0.045877 0.044588 0.042436 0.04139 0.039983 0.039087 
0.056432 0.061596 0.065148 0.068686 0.070465 0.07278 0.07426 0.074653 0.049255 0.047253 0.045494 0.044314 0.042284 0.041544 0.040563 
0.033377 0.040721 0.045776 0.050754 0.054497 0.058059 0.060792 0.063471 0.044403 0.042592 0.041584 0.040713 0.038967 0.038628 0.037828 
0.007108 0.015454 0.021214 0.02688 0.032407 0.036878 0.040587 0.045182 0.035195 0.033528 0.033569 0.032921 0.03127 0.03135 0.030866 
-0.017174 -0.009893 -0.004175 0.001662 0.007437 0.012339 0.017075 0.023355 0.022602 0.021969 0.022277 0.022076 0.020372 0.02121 0.021257 
-0.039261 -0.03281 -0.027872 -0.023009 -0.01766 -0.012174 -0.007528 -0.001182 0.008264 0.00837 0.009213 0.00907 0.008943 0.009444 0.010051 
-0.059802 -0.053664 -0.049218 -0.045597 -0.040435 -0.036086 -0.03135 -0.02579 -0.007313 -0.006632 -0.004992 -0.004679 -0.004043 -0.003491 -0.002856 
-0.075707 -0.071109 -0.0677 -0.064867 -0.060412 -0.057132 -0.053089 -0.047798 -0.022893 -0.02142 -0.019529 -0.018505 -0.018355 -0.016964 -0.016506 
-0.082319 -0.080436 -0.079517 -0.077771 -0.07517 -0.072345 -0.069303 -0.064745 -0.035267 -0.033147 -0.031126 -0.030059 -0.029323 -0.028371 -0.027171 
-0.079939 -0.080715 -0.081964 -0.081884 -0.081138 -0.080639 -0.078007 -0.074928 -0.044142 -0.041182 -0.039416 -0.038184 -0.036779 -0.035878 -0.034947 
-0.071404 -0.074699 -0.07689 -0.078846 -0.079493 -0.080538 -0.080123 -0.078837 -0.049098 -0.046267 -0.044961 -0.043249 -0.042024 -0.040627 -0.040461 
-0.056265 -0.062132 -0.06538 -0.068897 -0.071129 -0.072805 -0.07416 -0.074697 -0.049186 -0.046919 -0.045457 -0.044034 -0.042695 -0.042184 -0.041133 
-0.032162 -0.039961 -0.045637 -0.050129 -0.054217 -0.057873 -0.060205 -0.062188 -0.044185 -0.041906 -0.040883 -0.039725 -0.038618 -0.038181 -0.037248 
-0.006787 -0.01477 -0.021148 -0.02643 -0.031616 -0.036265 -0.040531 -0.044425 -0.034421 -0.033211 -0.032881 -0.031872 -0.031347 -0.030621 -0.03046 
0.015202 0.007636 0.002839 -0.002696 -0.00761 -0.012265 -0.017286 -0.022942 -0.022218 -0.022004 -0.022098 -0.021797 -0.020819 -0.021219 -0.020827 
0.039965 0.032183 0.027535 0.02221 0.017142 0.012069 0.007077 0.001007 -0.007978 -0.008025 -0.009006 -0.009343 -0.008287 -0.008995 -0.00886 
0.061002 0.054767 0.050456 0.046014 0.040649 0.035909 0.030998 0.025009 0.00769 0.006811 0.005166 0.004465 0.004682 0.003984 0.003753 
0.074316 0.070449 0.067711 0.064842 0.060627 0.056741 0.05262 0.04735 0.022357 0.020944 0.018981 0.018264 0.017855 0.016935 0.016304 
0.082446 0.081064 0.079402 0.078051 0.075253 0.072438 0.069411 0.065056 0.034935 0.033018 0.031003 0.030067 0.029172 0.028603 0.027512 
0.079868 0.081902 0.082187 0.082523 0.08157 0.080311 0.078653 0.0749 0.043816 0.04151 0.039415 0.037884 0.036783 0.036103 0.034714 
0.070804 0.073861 0.076608 0.07869 0.079855 0.080032 0.080027 0.078427 0.049222 0.046718 0.044722 0.042965 0.041676 0.040662 0.039193 
0.056443 0.061012 0.065054 0.068466 0.0708 0.072713 0.074129 0.075744 0.049975 0.047364 0.046128 0.044522 0.043203 0.041859 0.041217 
0.033078 0.040614 0.045872 0.05038 0.053981 0.057703 0.06021 0.063614 0.044362 0.042335 0.041586 0.040332 0.039295 0.038263 0.037842 
0.007694 0.015534 0.021708 0.026924 0.032096 0.036528 0.040395 0.044667 0.035226 0.033458 0.033087 0.032248 0.031262 0.030929 0.030695 
-0.017282 -0.009383 -0.003805 0.001675 0.007355 0.012278 0.017093 0.022514 0.022549 0.021714 0.021815 0.021631 0.020877 0.020686 0.0209 
-0.040351 -0.032805 -0.028131 -0.023259 -0.018216 -0.012795 -0.007949 -0.001745 0.007766 0.007993 0.00878 0.008914 0.008679 0.009199 0.008821 
-0.060008 -0.053858 -0.049731 -0.046057 -0.041129 -0.036524 -0.0318 -0.025264 -0.006958 -0.006332 -0.00481 -0.004461 -0.004259 -0.003552 -0.003029 
-0.075868 -0.071469 -0.068122 -0.065435 -0.061085 -0.05721 -0.053159 -0.047275 -0.022823 -0.021128 -0.019126 -0.018021 -0.017725 -0.016943 -0.015917 
-0.082351 -0.080863 -0.079493 -0.078118 -0.075815 -0.072602 -0.069613 -0.065691 -0.035699 -0.033913 -0.031165 -0.030116 -0.029609 -0.027835 -0.027835 
-0.079753 -0.080918 -0.082155 -0.082202 -0.081371 -0.080384 -0.078456 -0.075986 -0.044097 -0.042179 -0.039598 -0.038483 -0.037316 -0.036063 -0.035073 
-0.071169 -0.075032 -0.077151 -0.078974 -0.079853 -0.080128 -0.080157 -0.078918 -0.049469 -0.047028 -0.045064 -0.043501 -0.04202 -0.041462 -0.039988 
-0.055457 -0.061403 -0.064727 -0.068455 -0.071017 -0.072274 -0.074325 -0.075012 -0.049238 -0.047064 -0.045515 -0.044332 -0.042917 -0.042145 -0.041264 
-0.032085 -0.039573 -0.045179 -0.049773 -0.053492 -0.057082 -0.060153 -0.062616 -0.044137 -0.041661 -0.04098 -0.039791 -0.038612 -0.038167 -0.037474 
-0.007185 -0.015126 -0.021014 -0.026173 -0.031475 -0.036127 -0.04014 -0.044491 -0.035218 -0.033514 -0.033223 -0.032426 -0.031211 -0.030776 -0.031192 
0.015828 0.009019 0.003482 -0.001734 -0.007102 -0.012173 -0.017001 -0.022718 -0.022381 -0.021719 -0.022163 -0.021967 -0.020998 -0.020783 -0.021326 
0.040371 0.03294 0.027641 0.022982 0.017944 0.012641 0.007993 0.001693 -0.008163 -0.007852 -0.009133 -0.008518 -0.008659 -0.009046 -0.009174 
0.061186 0.054607 0.050119 0.046106 0.041162 0.036337 0.032233 0.02523 0.006801 0.005685 0.004285 0.004377 0.004079 0.003521 0.002887 
0.07557 0.071704 0.068146 0.065258 0.061377 0.057295 0.053292 0.046632 0.022206 0.02056 0.018578 0.017866 0.017378 0.016344 0.015847 
0.083021 0.08108 0.079745 0.078435 0.07568 0.073093 0.069837 0.064487 0.035273 0.033431 0.030879 0.030228 0.028935 0.027752 0.027144 
0.079049 0.080647 0.081887 0.082458 0.081647 0.080635 0.079008 0.075868 0.044617 0.042104 0.039504 0.037948 0.037052 0.035892 0.034994 
0.070296 0.073827 0.076241 0.078294 0.079268 0.080054 0.07985 0.079744 0.049666 0.047534 0.045728 0.043381 0.042371 0.040988 0.040434 
0.05675 0.061137 0.064394 0.067954 0.07015 0.072286 0.073937 0.075148 0.049656 0.047238 0.046358 0.044838 0.043354 0.042412 0.041559 
0.032932 0.040189 0.045199 0.050094 0.054257 0.057277 0.06037 0.06282 0.044889 0.042359 0.04142 0.040471 0.0393 0.038616 0.037777 
0.006478 0.015295 0.021453 0.026439 0.031758 0.036278 0.040008 0.044843 0.035333 0.033819 0.033556 0.032587 0.031417 0.03091 0.030932 
-0.017543 -0.009194 -0.003757 0.001319 0.006681 0.011711 0.016874 0.022597 0.02227 0.021226 0.022113 0.021609 0.020797 0.020913 0.021214 
-0.039626 -0.033028 -0.028127 -0.023117 -0.017966 -0.013168 -0.007636 -0.001605 0.007671 0.007888 0.008908 0.009131 0.008515 0.009154 0.009426 
-0.059895 -0.054367 -0.04966 -0.045739 -0.040931 -0.036341 -0.03197 -0.025707 -0.007984 -0.006625 -0.005233 -0.004718 -0.004782 -0.003994 -0.003255 
-0.07588 -0.070769 -0.067335 -0.064904 -0.061007 -0.05688 -0.053049 -0.047469 -0.022991 -0.02171 -0.01978 -0.019169 -0.018154 -0.01735 -0.016351 
-0.082151 -0.080091 -0.078659 -0.077654 -0.075253 -0.072263 -0.069201 -0.064672 -0.035484 -0.033511 -0.0315 -0.030011 -0.029663 -0.028026 -0.027299 
-0.079511 -0.080653 -0.081499 -0.082043 -0.080818 -0.07975 -0.078469 -0.075309 -0.044359 -0.042004 -0.039704 -0.037912 -0.037283 -0.035909 -0.034873 
-0.071639 -0.074544 -0.076835 -0.07883 -0.079282 -0.07972 -0.079979 -0.078422 -0.049173 -0.046814 -0.044916 -0.043651 -0.041702 -0.041116 -0.040131 
-0.055975 -0.061666 -0.065214 -0.068027 -0.070592 -0.072534 -0.074047 -0.07455 -0.049494 -0.046724 -0.04564 -0.04422 -0.042639 -0.041381 -0.041139 
-0.031307 -0.039476 -0.044938 -0.049456 -0.053609 -0.056962 -0.060024 -0.062464 -0.044218 -0.041981 -0.040725 -0.039509 -0.038087 -0.037443 -0.037052 
-0.006568 -0.014958 -0.020734 -0.026287 -0.031388 -0.035871 -0.039925 -0.044358 -0.03497 -0.033635 -0.032782 -0.032032 -0.030871 -0.030895 -0.030373 
0.015677 0.007928 0.002621 -0.001957 -0.007214 -0.012426 -0.016968 -0.023143 -0.022877 -0.021878 -0.022585 -0.022141 -0.021661 -0.021362 -0.021075 
0.040147 0.032996 0.027484 0.02277 0.017253 0.012355 0.007522 0.001339 -0.007989 -0.00764 -0.009158 -0.009346 -0.009097 -0.009267 -0.009373 
0.060618 0.054591 0.050098 0.045924 0.040809 0.036038 0.031473 0.025411 0.007594 0.006442 0.005064 0.004388 0.004368 0.003854 0.00312 
0.074806 0.070361 0.067562 0.064902 0.061089 0.056972 0.052799 0.046968 0.022424 0.020885 0.019213 0.018175 0.017954 0.016921 0.016168 
0.08304 0.081183 0.079877 0.078021 0.075064 0.072453 0.069668 0.064503 0.03514 0.033634 0.031171 0.030281 0.029364 0.027914 0.027216 
0.079671 0.081385 0.082101 0.082622 0.081421 0.079773 0.079226 0.074965 0.044616 0.041689 0.039201 0.038134 0.036963 0.035321 0.034743 
0.069664 0.07381 0.07633 0.078666 0.079532 0.079544 0.079974 0.078987 0.049661 0.046594 0.044856 0.042873 0.04195 0.040473 0.039868 
0.055059 0.060517 0.06438 0.067501 0.069559 0.07201 0.073105 0.075205 0.04931 0.047178 0.045697 0.043857 0.042675 0.042095 0.04089 
0.032636 0.039987 0.044833 0.049552 0.053257 0.057149 0.059861 0.062764 0.044468 0.042831 0.041323 0.040207 0.039257 0.038453 0.0373 
0.007432 0.015882 0.021517 0.026635 0.031667 0.036496 0.040204 0.044725 0.035459 0.034446 0.033698 0.032986 0.031981 0.031507 0.03078 
-0.017976 -0.010112 -0.003727 0.001112 0.00666 0.012023 0.016166 0.02289 0.022879 0.022152 0.022417 0.022061 0.02081 0.021396 0.02127 
-0.04055 -0.033371 -0.027966 -0.02345 -0.017913 -0.013041 -0.008274 -0.001206 0.008194 0.008273 0.009377 0.009399 0.008638 0.009071 0.009726 
-0.059272 -0.053217 -0.04933 -0.045542 -0.040674 -0.036094 -0.031529 -0.025615 -0.007323 -0.006365 -0.004687 -0.004163 -0.00436 -0.003459 -0.002775 
-0.07538 -0.071533 -0.068135 -0.065035 -0.060656 -0.056879 -0.053075 -0.048091 -0.022566 -0.021356 -0.01934 -0.018578 -0.01796 -0.016767 -0.016198 
-0.081482 -0.080493 -0.079155 -0.077859 -0.074585 -0.072508 -0.06958 -0.065308 -0.035601 -0.033841 -0.031345 -0.030101 -0.029179 -0.028315 -0.027559 
-0.078027 -0.07957 -0.080912 -0.081613 -0.08063 -0.079555 -0.077941 -0.075261 -0.044454 -0.041964 -0.0398 -0.038131 -0.037073 -0.036216 -0.034875 
-0.071119 -0.07423 -0.076862 -0.07835 -0.079116 -0.079588 -0.079237 -0.07869 -0.049681 -0.04701 -0.045263 -0.043982 -0.042131 -0.041478 -0.04009 
-0.055424 -0.061212 -0.065382 -0.068439 -0.070181 -0.072681 -0.073782 -0.075193 -0.049546 -0.047686 -0.045963 -0.044679 -0.043143 -0.042048 -0.041572 
-0.030682 -0.03908 -0.044648 -0.049662 -0.053296 -0.056869 -0.059945 -0.06272 -0.043487 -0.04177 -0.040804 -0.039503 -0.038675 -0.037895 -0.037331 
-0.007266 -0.014792 -0.020476 -0.025759 -0.031085 -0.035659 -0.040119 -0.043843 -0.035063 -0.033342 -0.032756 -0.031635 -0.030734 -0.030856 -0.030576 
0.015137 0.008531 0.002934 -0.001912 -0.007287 -0.012377 -0.017117 -0.022335 -0.022896 -0.022496 -0.022424 -0.021706 -0.020993 -0.020816 -0.021277 
0.040379 0.032731 0.027365 0.023029 0.017605 0.01283 0.007773 0.001469 -0.007548 -0.007659 -0.00857 -0.009241 -0.00867 -0.00904 -0.009086 
0.061004 0.054293 0.050331 0.046279 0.041131 0.03684 0.031643 0.025551 0.007659 0.00694 0.005717 0.004757 0.004838 0.003705 0.003212 
0.074848 0.070825 0.068136 0.064806 0.060487 0.057133 0.053108 0.047499 0.023071 0.021036 0.019173 0.018526 0.017972 0.017089 0.016235 
0.082021 0.080227 0.078724 0.077831 0.074853 0.072315 0.069745 0.065138 0.03535 0.0334 0.031131 0.029751 0.029434 0.028336 0.027391 
0.078702 0.079556 0.08063 0.081546 0.080819 0.079581 0.078223 0.075197 0.043455 0.041541 0.039399 0.037884 0.036845 0.035836 0.034382 
0.069781 0.073479 0.076228 0.077739 0.078439 0.07923 0.079444 0.078221 0.049388 0.046731 0.044582 0.043382 0.041234 0.040629 0.039798 
0.05583 0.061356 0.064945 0.067825 0.070152 0.072014 0.073904 0.07485 0.049858 0.047236 0.045644 0.044558 0.042925 0.041959 0.04133 
0.033007 0.04028 0.045561 0.050077 0.054152 0.0573 0.060666 0.063336 0.044451 0.042714 0.041411 0.040538 0.039287 0.038678 0.037959 
0.006759 0.015795 0.021721 0.027065 0.031799 0.036485 0.040508 0.045005 0.035185 0.034109 0.033294 0.032583 0.031381 0.031639 0.031114 
-0.017786 -0.009119 -0.003502 0.001788 0.007156 0.012145 0.016535 0.022372 0.022228 0.021596 0.021848 0.021623 0.021017 0.021101 0.020761 
-0.040269 -0.033232 -0.028031 -0.022973 -0.017613 -0.012819 -0.007741 -0.001907 0.007487 0.007893 0.008548 0.009108 0.008406 0.008848 0.009343 
-0.060858 -0.054928 -0.050592 -0.046237 -0.040957 -0.036754 -0.032025 -0.02559 -0.007925 -0.007004 -0.005301 -0.004689 -0.005233 -0.004043 -0.003353 
-0.075864 -0.071906 -0.068596 -0.066055 -0.061655 -0.057865 -0.053934 -0.047905 -0.022986 -0.021949 -0.019535 -0.019211 -0.018519 -0.017379 -0.016756 
-0.081243 -0.080391 -0.078809 -0.07792 -0.075834 -0.072732 -0.069649 -0.065495 -0.035734 -0.033822 -0.031793 -0.030696 -0.029543 -0.028044 -0.027471 
-0.078813 -0.080551 -0.081206 -0.081773 -0.081109 -0.080066 -0.078719 -0.075746 -0.04495 -0.042731 -0.04021 -0.038532 -0.037335 -0.036138 -0.035385 
-0.070959 -0.074098 -0.07647 -0.07851 -0.079297 -0.080019 -0.080024 -0.079031 -0.049548 -0.047337 -0.045194 -0.043851 -0.042374 -0.041895 -0.040339 
-0.055288 -0.060512 -0.064672 -0.067633 -0.0704 -0.072216 -0.073542 -0.074743 -0.049442 -0.046922 -0.045687 -0.044405 -0.043176 -0.042357 -0.041222 
-0.030719 -0.038332 -0.04436 -0.049096 -0.053197 -0.056574 -0.059522 -0.062677 -0.044635 -0.042448 -0.041146 -0.040075 -0.038504 -0.038224 -0.037536 
-0.006447 -0.013736 -0.019782 -0.025351 -0.030552 -0.035154 -0.039246 -0.04449 -0.035513 -0.033771 -0.033395 -0.032677 -0.031086 -0.031277 -0.030569 
0.015423 0.008396 0.003116 -0.001357 -0.006694 -0.011588 -0.016394 -0.022213 -0.022535 -0.021821 -0.02253 -0.021923 -0.021449 -0.021271 -0.021359 
0.040273 0.032822 0.027374 0.022585 0.017914 0.012782 0.008314 0.002212 -0.007203 -0.008026 -0.009085 -0.009056 -0.008364 -0.009005 -0.009503 
0.060815 0.05515 0.050457 0.045981 0.041279 0.036558 0.031913 0.026129 0.007752 0.006785 0.005252 0.004452 0.004918 0.003812 0.003153 
0.074731 0.070592 0.067779 0.064907 0.060832 0.057162 0.052425 0.047824 0.022407 0.021487 0.019798 0.018562 0.017688 0.016816 0.01599 
0.082151 0.080225 0.07929 0.077723 0.075192 0.072537 0.06973 0.064966 0.035154 0.033497 0.03171 0.03008 0.029431 0.028197 0.027463 
0.078391 0.080207 0.080992 0.082044 0.080782 0.080153 0.078692 0.074829 0.04412 0.041749 0.039666 0.037894 0.037197 0.035943 0.035143 
0.070118 0.073577 0.07576 0.078125 0.078966 0.079904 0.079372 0.078732 0.049779 0.04691 0.044925 0.043592 0.042548 0.041218 0.040455 
0.056943 0.061715 0.065562 0.068382 0.071007 0.072551 0.073825 0.075516 0.04995 0.047533 0.046019 0.044722 0.043683 0.042382 0.041842 
0.033177 0.040439 0.046033 0.050579 0.054205 0.057537 0.060397 0.063229 0.044976 0.043128 0.042159 0.04082 0.038794 0.038389 0.03825 
0.006591 0.01513 0.021306 0.026365 0.031369 0.036552 0.040671 0.045011 0.036124 0.034526 0.034098 0.033405 0.031511 0.031522 0.031449 
-0.017593 -0.0097 -0.004237 0.00091 0.006546 0.011991 0.01672 0.022742 0.022886 0.022314 0.022445 0.022337 0.021551 0.021454 0.021347 
-0.040076 -0.03348 -0.028826 -0.023917 -0.018156 -0.013433 -0.0087 -0.001741 0.007881 0.008286 0.009531 0.009479 0.00914 0.009266 0.009702 
-0.060165 -0.054318 -0.050028 -0.046385 -0.041104 -0.036888 -0.032413 -0.026055 -0.007482 -0.006667 -0.004618 -0.004349 -0.004369 -0.003668 -0.003121 
-0.075819 -0.071641 -0.068032 -0.065377 -0.061402 -0.057445 -0.053369 -0.04834 -0.022727 -0.021604 -0.019859 -0.018621 -0.018568 -0.017147 -0.016636 
-0.082152 -0.081351 -0.07974 -0.078043 -0.075802 -0.072969 -0.069615 -0.065491 -0.035417 -0.033776 -0.031952 -0.030346 -0.029716 -0.028308 -0.027466 
-0.078883 -0.080871 -0.082103 -0.082122 -0.081501 -0.080732 -0.078831 -0.075852 -0.044145 -0.04169 -0.039841 -0.038422 -0.037147 -0.03597 -0.035146 
-0.071102 -0.074597 -0.077152 -0.079334 -0.079507 -0.08037 -0.080154 -0.078864 -0.049224 -0.046226 -0.044723 -0.043395 -0.042121 -0.040957 -0.039942 
-0.056151 -0.061722 -0.065007 -0.068548 -0.070829 -0.072801 -0.073987 -0.074961 -0.049905 -0.047023 -0.045659 -0.044378 -0.042501 -0.041927 -0.040994 
-0.0313 -0.039196 -0.044482 -0.049432 -0.054034 -0.057711 -0.060336 -0.063593 -0.044505 -0.042397 -0.041612 -0.040405 -0.038208 -0.037799 -0.037725 
-0.006269 -0.014548 -0.020312 -0.025894 -0.031023 -0.035799 -0.040208 -0.044589 -0.034972 -0.033721 -0.033416 -0.032456 -0.031234 -0.03069 -0.030769 
0.016194 0.008624 0.003503 -0.00111 -0.006801 -0.011591 -0.016761 -0.022073 -0.02273 -0.022288 -0.022549 -0.021884 -0.021602 -0.021217 -0.021402 
0.040356 0.03335 0.0278 0.023165 0.017506 0.012667 0.007772 0.001563 -0.008031 -0.008345 -0.009274 -0.009273 -0.00928 -0.008995 -0.009904 
0.06086 0.055002 0.050029 0.046137 0.041121 0.036525 0.031654 0.025822 0.007111 0.006495 0.005035 0.004908 0.004574 0.003695 0.002905 
0.075595 0.071678 0.068025 0.065824 0.061401 0.057509 0.053298 0.047949 0.022704 0.021452 0.0193 0.018789 0.018209 0.016544 0.016092 
0.082609 0.081337 0.079533 0.078382 0.075624 0.073151 0.07006 0.065148 0.036135 0.033723 0.031489 0.030017 0.029172 0.028352 0.027442 
0.078294 0.079845 0.080992 0.081689 0.081213 0.080449 0.078592 0.075633 0.04424 0.041547 0.039431 0.038321 0.036755 0.036146 0.034826 
0.070141 0.073778 0.076092 0.077814 0.079197 0.079501 0.07969 0.078507 0.048594 0.046549 0.044771 0.043235 0.04181 0.040617 0.039858 
0.057034 0.062434 0.065485 0.068181 0.070773 0.072323 0.07428 0.074358 0.049427 0.047372 0.04594 0.044147 0.043066 0.042004 0.041863 
0.032933 0.040601 0.046109 0.050803 0.054691 0.058061 0.060861 0.063548 0.044988 0.042829 0.041527 0.04044 0.039168 0.038758 0.038245 
0.006703 0.015424 0.022159 0.027284 0.032424 0.036975 0.040846 0.045487 0.03535 0.033913 0.033716 0.032271 0.031291 0.030952 0.030797 
-0.01762 -0.009653 -0.003339 0.00179 0.007386 0.012098 0.017129 0.022849 0.022807 0.0218 0.022392 0.021804 0.020731 0.020907 0.021 
-0.041029 -0.033811 -0.028553 -0.023175 -0.017815 -0.013124 -0.007989 -0.001243 0.008251 0.007848 0.008921 0.008979 0.008531 0.009631 0.009163 
-0.060206 -0.054212 -0.050218 -0.046027 -0.041207 -0.036913 -0.032162 -0.026093 -0.007808 -0.007264 -0.005256 -0.005178 -0.004563 -0.004063 -0.003472 
-0.075582 -0.071571 -0.068231 -0.065805 -0.061295 -0.057602 -0.053549 -0.047992 -0.023098 -0.021745 -0.019625 -0.018573 -0.01811 -0.017655 -0.016637 
-0.082649 -0.08108 -0.079644 -0.078607 -0.07557 -0.072602 -0.069773 -0.064629 -0.035999 -0.033785 -0.031388 -0.030464 -0.02946 -0.028353 -0.027979 
-0.07912 -0.080146 -0.081508 -0.082066 -0.081572 -0.080481 -0.078694 -0.076169 -0.044691 -0.042356 -0.039782 -0.038586 -0.037231 -0.03648 -0.035326 
-0.071571 -0.074591 -0.07689 -0.078778 -0.079821 -0.080367 -0.080054 -0.079795 -0.049466 -0.047119 -0.045305 -0.043469 -0.042532 -0.041329 -0.040044 
-0.056192 -0.061887 -0.06525 -0.068304 -0.070885 -0.072337 -0.073941 -0.075337 -0.050366 -0.047786 -0.045964 -0.044523 -0.043268 -0.042143 -0.041676 
-0.03089 -0.038974 -0.044746 -0.049624 -0.053765 -0.056765 -0.059985 -0.063582 -0.044778 -0.042558 -0.041359 -0.039942 -0.038733 -0.03845 -0.037889 
-0.006733 -0.014749 -0.020858 -0.026387 -0.031124 -0.035545 -0.039956 -0.044292 -0.034785 -0.033101 -0.033673 -0.032307 -0.031599 -0.030989 -0.030041 
0.015959 0.008457 0.003287 -0.001838 -0.006695 -0.011957 -0.016561 -0.021575 -0.022493 -0.021595 -0.022391 -0.021725 -0.020999 -0.021105 -0.020739 
0.04092 0.03342 0.028032 0.022972 0.018222 0.013053 0.00836 0.00222 -0.00723 -0.007584 -0.008435 -0.00865 -0.007874 -0.008808 -0.009403 
0.060946 0.054604 0.050304 0.046409 0.041077 0.0369 0.032029 0.026224 0.008136 0.007183 0.005121 0.004778 0.005014 0.00428 0.003639 
0.075095 0.070786 0.068048 0.065805 0.060672 0.057009 0.053028 0.04746 0.022323 0.021402 0.019023 0.018402 0.018317 0.016984 0.016534 
0.082957 0.081022 0.079479 0.078347 0.07535 0.072545 0.069601 0.064763 0.035174 0.033389 0.031507 0.029856 0.029415 0.028239 0.027501 
0.079296 0.080554 0.082013 0.08235 0.081261 0.08013 0.078516 0.075771 0.044203 0.041716 0.039594 0.038194 0.036792 0.035875 0.034896 
0.069862 0.073557 0.07639 0.078341 0.078949 0.079603 0.079754 0.078892 0.049183 0.047063 0.044625 0.043658 0.042095 0.040698 0.039938 
0.056391 0.0615 0.064305 0.067626 0.070127 0.07222 0.073622 0.074654 0.049498 0.047335 0.045868 0.044282 0.043095 0.042171 0.041497 
0.033359 0.040823 0.045682 0.050193 0.054466 0.057245 0.060196 0.06285 0.044589 0.042306 0.041702 0.040278 0.03927 0.038504 0.037623 
0.006692 0.015514 0.021736 0.026797 0.03231 0.036603 0.040952 0.045068 0.035431 0.03392 0.033408 0.032494 0.031705 0.031198 0.030808 
-0.017731 -0.009548 -0.003484 0.00128 0.006661 0.012199 0.016935 0.02254 0.022133 0.021676 0.022204 0.021378 0.020834 0.020874 0.02111 
-0.040452 -0.033201 -0.027822 -0.023214 -0.018162 -0.012921 -0.008469 -0.002141 0.007771 0.007607 0.009007 0.008781 0.008487 0.008671 0.008884 
-0.060659 -0.054787 -0.050469 -0.046033 -0.041287 -0.036232 -0.032 -0.025541 -0.006789 -0.006405 -0.005093 -0.004793 -0.005006 -0.003809 -0.003702 
-0.076447 -0.07215 -0.06871 -0.065816 -0.06159 -0.057676 -0.053512 -0.047572 -0.022976 -0.02128 -0.019259 -0.018549 -0.018354 -0.017348 -0.016624 
-0.082468 -0.081015 -0.079836 -0.078975 -0.075557 -0.073345 -0.070312 -0.065414 -0.03588 -0.033879 -0.031202 -0.029833 -0.029169 -0.028796 -0.027432 
-0.07872 -0.080452 -0.081905 -0.082356 -0.081475 -0.080523 -0.078932 -0.075589 -0.043896 -0.041513 -0.039382 -0.037878 -0.037057 -0.03544 -0.034969 
-0.071627 -0.074723 -0.076918 -0.078571 -0.079973 -0.080361 -0.080179 -0.078825 -0.049353 -0.046482 -0.04493 -0.043221 -0.042043 -0.040446 -0.040225 
-0.05642 -0.061901 -0.065475 -0.068848 -0.071043 -0.072891 -0.074275 -0.074769 -0.049392 -0.047381 -0.045869 -0.044233 -0.042848 -0.041949 -0.040946 
-0.030762 -0.038874 -0.044855 -0.049729 -0.053759 -0.057643 -0.060294 -0.06267 -0.043573 -0.042152 -0.040726 -0.039844 -0.038561 -0.03746 -0.037101 
-0.00634 -0.014572 -0.020576 -0.025862 -0.031404 -0.036052 -0.040142 -0.044661 -0.034391 -0.033315 -0.03296 -0.032072 -0.030923 -0.030808 -0.0305 
0.016351 0.008641 0.003405 -0.001681 -0.007108 -0.011873 -0.016303 -0.022389 -0.021899 -0.021347 -0.02219 -0.021287 -0.020578 -0.021017 -0.020355 
0.040984 0.033859 0.028426 0.023834 0.018327 0.013011 0.008551 0.002267 -0.00732 -0.007241 -0.008136 -0.008237 -0.00812 -0.00797 -0.008321 
0.061148 0.055137 0.050534 0.04666 0.041837 0.037235 0.032104 0.025916 0.007751 0.007039 0.005622 0.00488 0.004807 0.004414 0.003711 
0.075744 0.071578 0.068074 0.065211 0.061665 0.057738 0.053432 0.047463 0.022615 0.021146 0.019151 0.01855 0.018132 0.016984 0.016741 
0.082221 0.080943 0.07939 0.078251 0.075345 0.07274 0.069927 0.064778 0.034851 0.032682 0.031117 0.029838 0.029114 0.027796 0.027541 
0.078674 0.080041 0.081302 0.081981 0.080794 0.080316 0.078805 0.074742 0.043172 0.041107 0.039136 0.036974 0.036033 0.034969 0.034145 
0.071457 0.074509 0.076663 0.078772 0.079579 0.080042 0.079869 0.078163 0.048518 0.046469 0.044366 0.042685 0.041069 0.040584 0.039526 
0.056931 0.061944 0.065617 0.069063 0.070937 0.072939 0.073948 0.074842 0.049293 0.046591 0.045366 0.044049 0.042724 0.041916 0.040965 
0.032002 0.039812 0.045788 0.050396 0.054157 0.057885 0.060871 0.063224 0.044097 0.041711 0.041067 0.03978 0.038718 0.037795 0.036952 
0.005828 0.014987 0.020979 0.026152 0.031848 0.036163 0.040532 0.044905 0.034792 0.033079 0.03319 0.032327 0.031005 0.030668 0.030586 
-0.018136 -0.010017 -0.004417 0.000951 0.00684 0.011741 0.016211 0.022407 0.022175 0.021575 0.021888 0.021407 0.020638 0.020581 0.020458 
-0.040751 -0.033734 -0.028638 -0.023756 -0.018263 -0.013262 -0.008264 -0.002135 0.007374 0.008089 0.008354 0.008853 0.008064 0.008695 0.008356 
-0.060782 -0.054447 -0.050348 -0.046619 -0.041295 -0.037032 -0.032229 -0.025755 -0.007595 -0.006516 -0.005448 -0.004468 -0.004687 -0.003907 -0.003267 
-0.076352 -0.072025 -0.068747 -0.065535 -0.061256 -0.057737 -0.053953 -0.046638 -0.022156 -0.020825 -0.01923 -0.018384 -0.017525 -0.016901 -0.016362 
-0.082263 -0.081249 -0.080034 -0.078309 -0.075693 -0.073176 -0.069816 -0.06441 -0.034854 -0.032988 -0.031321 -0.029737 -0.029113 -0.027665 -0.027421 
-0.079082 -0.080644 -0.08159 -0.082272 -0.081302 -0.080563 -0.078861 -0.075852 -0.044263 -0.041522 -0.039655 -0.037893 -0.037 -0.035483 -0.034533 
-0.070924 -0.074214 -0.076444 -0.078527 -0.079405 -0.080068 -0.080789 -0.079133 -0.049419 -0.046753 -0.044716 -0.043161 -0.04199 -0.041071 -0.039894 
-0.054702 -0.060383 -0.064445 -0.068358 -0.070496 -0.072313 -0.074267 -0.07557 -0.049561 -0.047532 -0.045798 -0.044236 -0.043105 -0.042365 -0.041176 
-0.030461 -0.038691 -0.044211 -0.049319 -0.052961 -0.056693 -0.059905 -0.063674 -0.044642 -0.042285 -0.041446 -0.040249 -0.038608 -0.038196 -0.037305 
-0.006261 -0.014949 -0.020363 -0.025709 -0.030689 -0.035309 -0.039439 -0.044463 -0.034636 -0.033165 -0.033228 -0.032129 -0.03072 -0.030809 -0.030335 
0.015926 0.008423 0.003644 -0.00221 -0.006876 -0.011481 -0.015984 -0.021863 -0.021806 -0.02148 -0.022153 -0.021578 -0.020819 -0.021014 -0.020933 
0.039912 0.032795 0.027823 0.022777 0.017643 0.012657 0.007812 0.002007 -0.00779 -0.007537 -0.008834 -0.009047 -0.008626 -0.008538 -0.009212 
0.060867 0.054703 0.049907 0.046272 0.04056 0.036079 0.03181 0.025773 0.007932 0.0071 0.005315 0.004454 0.004874 0.004322 0.00368 
0.075287 0.070925 0.068053 0.065445 0.060698 0.057135 0.053273 0.04824 0.023239 0.021454 0.019772 0.018402 0.018571 0.017181 0.016448 
0.082903 0.081015 0.080019 0.078485 0.075257 0.072523 0.069292 0.065136 0.035272 0.03337 0.031908 0.030679 0.029869 0.028697 0.027454 
0.07916 0.081358 0.082035 0.082318 0.081178 0.08033 0.079034 0.074855 0.043964 0.041552 0.040135 0.038312 0.037036 0.035835 0.034979 
0.069673 0.073568 0.076192 0.078571 0.079206 0.080028 0.080494 0.078959 0.049397 0.046577 0.045108 0.043164 0.041897 0.040727 0.039872 
0.055993 0.060717 0.064249 0.06761 0.070034 0.071883 0.073729 0.074991 0.049503 0.046944 0.045416 0.044361 0.043214 0.042289 0.041239 
0.032578 0.040161 0.044943 0.049731 0.053375 0.057146 0.060068 0.062897 0.044042 0.042348 0.041331 0.03992 0.038899 0.038047 0.03747 
0.006939 0.015208 0.021543 0.026963 0.03144 0.036488 0.040306 0.044443 0.034824 0.033866 0.033674 0.032186 0.031186 0.03074 0.030444 
-0.017399 -0.009425 -0.003701 0.001039 0.006987 0.012127 0.01676 0.021708 0.022547 0.021634 0.022168 0.021501 0.02085 0.02053 0.020703 
-0.040893 -0.033498 -0.028892 -0.023491 -0.018106 -0.012625 -0.008067 -0.001553 0.008096 0.007816 0.008928 0.009166 0.008062 0.008585 0.009447 
-0.06037 -0.054892 -0.050597 -0.045692 -0.041116 -0.036497 -0.032176 -0.025317 -0.007765 -0.006712 -0.0052 -0.004272 -0.005016 -0.003631 -0.002919 
-0.075698 -0.071543 -0.068434 -0.065483 -0.060978 -0.057716 -0.053529 -0.047927 -0.023188 -0.021792 -0.019751 -0.018983 -0.017889 -0.017131 -0.016723 
-0.082166 -0.080611 -0.079516 -0.078166 -0.075619 -0.07304 -0.06976 -0.065277 -0.035888 -0.034082 -0.0319 -0.03061 -0.029648 -0.028577 -0.02769 
-0.079397 -0.080468 -0.081469 -0.082043 -0.08131 -0.080458 -0.078941 -0.076106 -0.045242 -0.042584 -0.04063 -0.038759 -0.038049 -0.036398 -0.035386 
-0.071493 -0.074338 -0.076818 -0.078643 -0.079066 -0.080033 -0.080256 -0.079496 -0.050009 -0.047574 -0.04581 -0.0443 -0.042741 -0.041859 -0.040936 
-0.054684 -0.060745 -0.064482 -0.067754 -0.069953 -0.072258 -0.073434 -0.074786 -0.049511 -0.04721 -0.045971 -0.044453 -0.043231 -0.042636 -0.041369 
-0.03025 -0.038051 -0.043612 -0.048755 -0.052727 -0.056581 -0.059132 -0.062323 -0.044137 -0.041885 -0.041068 -0.039912 -0.038841 -0.038064 -0.037251 
-0.006277 -0.013919 -0.019672 -0.025229 -0.030153 -0.034863 -0.038952 -0.043923 -0.034545 -0.032982 -0.032824 -0.032265 -0.030898 -0.030626 -0.030475 
0.016756 0.009331 0.00409 -0.000957 -0.006074 -0.011018 -0.015567 -0.021516 -0.021961 -0.021171 -0.021741 -0.021266 -0.020403 -0.020723 -0.020881 
0.040951 0.033971 0.028391 0.023916 0.018339 0.013512 0.008516 0.002943 -0.007287 -0.007565 -0.008357 -0.008229 -0.007965 -0.008367 -0.008896 
0.061427 0.055185 0.051012 0.046845 0.041394 0.037254 0.032183 0.026458 0.008312 0.007394 0.005462 0.005474 0.005348 0.004503 0.004085 
0.074999 0.070864 0.068284 0.065 0.060988 0.05743 0.053542 0.047826 0.023166 0.02191 0.019331 0.019122 0.0185 0.017327 0.016322 
0.081333 0.080146 0.078737 0.077443 0.075113 0.072126 0.069536 0.065132 0.035633 0.033694 0.031652 0.030443 0.029449 0.028785 0.027049 
0.078473 0.080147 0.081129 0.081656 0.080682 0.079789 0.078235 0.075543 0.044777 0.042086 0.039886 0.038254 0.037099 0.0364 0.03547 
0.06981 0.073613 0.075827 0.077725 0.078155 0.079459 0.079445 0.078701 0.049822 0.046809 0.045045 0.043418 0.042171 0.041333 0.040605 
0.055452 0.060662 0.064124 0.067284 0.069757 0.071744 0.073161 0.074631 0.049946 0.04756 0.046391 0.044825 0.043461 0.042834 0.041599 
0.032397 0.039589 0.045128 0.049495 0.05366 0.056973 0.059469 0.063032 0.045049 0.042989 0.042045 0.040828 0.039551 0.038745 0.038181 
0.006445 0.014927 0.020775 0.025911 0.030904 0.035476 0.039543 0.044444 0.035077 0.033616 0.033614 0.032318 0.031651 0.031234 0.031153 
-0.018471 -0.01034 -0.004701 0.000627 0.006094 0.010731 0.015685 0.021516 0.021709 0.021601 0.021973 0.021313 0.020715 0.020718 0.020883 
-0.041023 -0.034316 -0.028874 -0.024043 -0.018573 -0.013823 -0.008923 -0.00244 0.007642 0.007513 0.008675 0.008837 0.00846 0.008118 0.009107 
-0.060314 -0.054953 -0.050689 -0.046933 -0.041629 -0.037277 -0.032711 -0.026216 -0.007719 -0.007406 -0.0052 -0.005024 -0.004623 -0.004194 -0.003458 
-0.076359 -0.071912 -0.069159 -0.066214 -0.061862 -0.057979 -0.054169 -0.048375 -0.023766 -0.02191 -0.01993 -0.019033 -0.019029 -0.017353 -0.016915 
-0.082769 -0.08109 -0.079899 -0.078649 -0.076017 -0.072923 -0.069963 -0.065548 -0.036161 -0.034086 -0.031908 -0.030436 -0.030191 -0.028986 -0.027894 
-0.078746 -0.080567 -0.081074 -0.082278 -0.081001 -0.080227 -0.07894 -0.075827 -0.044558 -0.042163 -0.040103 -0.03833 -0.037293 -0.036433 -0.035447 
-0.07062 -0.073986 -0.076114 -0.078471 -0.078945 -0.080097 -0.080213 -0.079473 -0.049959 -0.047267 -0.045649 -0.043876 -0.042817 -0.041548 -0.040426 
-0.055769 -0.060744 -0.064613 -0.067449 -0.070051 -0.072171 -0.073258 -0.07523 -0.050176 -0.04798 -0.046162 -0.045024 -0.04337 -0.042655 -0.041381 
-0.030751 -0.038981 -0.044643 -0.048623 -0.052676 -0.056461 -0.059522 -0.062751 -0.044769 -0.042497 -0.04156 -0.040111 -0.038728 -0.038313 -0.037843 
-0.005294 -0.014436 -0.020222 -0.025273 -0.030429 -0.035409 -0.039477 -0.044373 -0.034855 -0.03346 -0.033373 -0.032315 -0.031573 -0.030978 -0.030613 
0.016302 0.009235 0.003876 -0.0007 -0.006443 -0.011249 -0.016044 -0.021687 -0.022237 -0.021893 -0.02211 -0.022171 -0.021089 -0.020922 -0.020806 
0.040911 0.033814 0.028314 0.024123 0.018498 0.013744 0.008247 0.002344 -0.008092 -0.007641 -0.008716 -0.008913 -0.008265 -0.008874 -0.009066 
0.062253 0.055573 0.051438 0.047055 0.041551 0.037377 0.032925 0.025702 0.007764 0.007309 0.005686 0.005027 0.004836 0.003706 0.003616 
0.074904 0.071448 0.068581 0.065825 0.061295 0.058009 0.054028 0.048075 0.023169 0.021522 0.019595 0.018599 0.018149 0.017264 0.015971 
0.08191 0.080745 0.079104 0.078107 0.075578 0.072735 0.069575 0.065547 0.035863 0.033578 0.031478 0.030303 0.029701 0.028719 0.027057 
0.079076 0.080429 0.081372 0.081355 0.080633 0.079938 0.079025 0.076077 0.044733 0.042089 0.039997 0.038372 0.037152 0.035975 0.035041 
0.069699 0.072911 0.075572 0.077331 0.078274 0.079707 0.079991 0.079383 0.049209 0.046827 0.045041 0.043614 0.041928 0.041085 0.039952 
0.056193 0.060352 0.064221 0.067684 0.069962 0.071797 0.073477 0.074335 0.049651 0.047334 0.045952 0.044721 0.043282 0.042404 0.041692 
0.03335 0.040572 0.045622 0.050138 0.053999 0.057104 0.060433 0.062382 0.045125 0.043073 0.041451 0.040592 0.039014 0.038744 0.038167 
0.006533 0.015216 0.021246 0.026335 0.031916 0.03646 0.040416 0.044273 0.035098 0.033799 0.03307 0.032381 0.031054 0.031548 0.03056 
-0.018497 -0.010826 -0.004523 0.001014 0.00664 0.011627 0.016116 0.022061 0.0218 0.02095 0.021851 0.020852 0.020551 0.02066 0.020779 
-0.040572 -0.033792 -0.028934 -0.023719 -0.018524 -0.0136 -0.009006 -0.001819 0.007675 0.007503 0.008415 0.008389 0.008278 0.008336 0.008997 
-0.060318 -0.05441 -0.050483 -0.046749 -0.041679 -0.037427 -0.033091 -0.026381 -0.007809 -0.006666 -0.005555 -0.004879 -0.004812 -0.003991 -0.003664 
-0.075888 -0.071425 -0.068328 -0.065594 -0.061587 -0.057836 -0.054119 -0.048119 -0.023458 -0.021586 -0.019526 -0.018959 -0.018263 -0.017106 -0.016268 
-0.080968 -0.07979 -0.078878 -0.077496 -0.07481 -0.072417 -0.069372 -0.06488 -0.035641 -0.033809 -0.031489 -0.030084 -0.029229 -0.028227 -0.027413 
-0.078603 -0.079936 -0.080815 -0.081567 -0.080376 -0.079901 -0.078098 -0.075271 -0.044489 -0.042028 -0.039992 -0.038353 -0.03736 -0.036329 -0.035547 
-0.071514 -0.073827 -0.075927 -0.078124 -0.079057 -0.079165 -0.079893 -0.078644 -0.049488 -0.046777 -0.045351 -0.044113 -0.042654 -0.041637 -0.04066 
-0.055549 -0.060521 -0.064068 -0.067591 -0.070169 -0.071572 -0.073106 -0.074731 -0.049213 -0.047278 -0.045727 -0.044394 -0.042615 -0.041882 -0.041586 
-0.031088 -0.038911 -0.044436 -0.049215 -0.053095 -0.056791 -0.058902 -0.06213 -0.044211 -0.042326 -0.040768 -0.039528 -0.038145 -0.037797 -0.03741 
-0.005509 -0.013723 -0.019971 -0.025368 -0.030298 -0.035432 -0.039318 -0.043905 -0.034616 -0.033006 -0.032825 -0.031805 -0.030642 -0.030747 -0.030177 
0.016523 0.00941 0.003884 -0.001455 -0.006381 -0.011473 -0.015965 -0.022096 -0.021777 -0.021304 -0.021988 -0.021564 -0.020198 -0.020602 -0.020567 
0.040176 0.033471 0.027536 0.022959 0.017767 0.013713 0.008489 0.002703 -0.007015 -0.007108 -0.008281 -0.008586 -0.008094 -0.008344 -0.008525 
0.061666 0.055553 0.050643 0.046857 0.041494 0.037197 0.032478 0.02659 0.00833 0.007622 0.005853 0.005708 0.005368 0.004759 0.003931 
0.075026 0.07097 0.068593 0.065615 0.061486 0.05708 0.053543 0.047725 0.022743 0.02111 0.019395 0.019046 0.018714 0.017191 0.01637 
0.081982 0.080745 0.079354 0.078166 0.075387 0.072705 0.069304 0.064572 0.035284 0.033069 0.031247 0.029985 0.02895 0.027692 0.027596 
0.078586 0.080185 0.08119 0.082039 0.080949 0.080116 0.078529 0.07504 0.044343 0.041399 0.039496 0.038164 0.036617 0.035546 0.035005 
0.069099 0.072438 0.075729 0.077528 0.078408 0.079262 0.079605 0.078755 0.049445 0.046599 0.044526 0.043243 0.041999 0.040665 0.039592 
0.055566 0.061052 0.06446 0.067324 0.069652 0.071735 0.073324 0.074622 0.049116 0.047557 0.045619 0.044142 0.042643 0.04205 0.041201 
0.032496 0.040664 0.045622 0.050076 0.053842 0.057285 0.060048 0.062169 0.043541 0.042333 0.041668 0.040253 0.038701 0.038399 0.037927 
0.006487 0.015097 0.021402 0.026682 0.031664 0.036544 0.040054 0.044194 0.035242 0.033625 0.033518 0.032367 0.031144 0.030926 0.030818 
-0.018346 -0.010968 -0.004645 0.000576 0.006357 0.011423 0.016367 0.022663 0.022657 0.021513 0.021778 0.021742 0.020313 0.020698 0.020693 
-0.040641 -0.034463 -0.028991 -0.024198 -0.018888 -0.014003 -0.008856 -0.002234 0.007068 0.007291 0.008525 0.008946 0.008219 0.008902 0.008911 
-0.060089 -0.054311 -0.050503 -0.046032 -0.041829 -0.03772 -0.033029 -0.026613 -0.007917 -0.006676 -0.005123 -0.005157 -0.00492 -0.003874 -0.003484 
-0.076703 -0.072157 -0.069036 -0.065736 -0.06149 -0.058503 -0.053759 -0.047694 -0.022876 -0.021417 -0.019481 -0.018785 -0.018625 -0.01736 -0.01655 
-0.082135 -0.081024 -0.079998 -0.078776 -0.075323 -0.072875 -0.070049 -0.065189 -0.035677 -0.033845 -0.03164 -0.030337 -0.02954 -0.028406 -0.027231 
-0.07861 -0.080601 -0.082104 -0.082626 -0.081337 -0.080183 -0.079315 -0.075866 -0.044076 -0.041988 -0.03984 -0.038569 -0.037185 -0.036231 -0.034888 
-0.071686 -0.075191 -0.077452 -0.079545 -0.080042 -0.080769 -0.080388 -0.078795 -0.04927 -0.046959 -0.044719 -0.043223 -0.042031 -0.041132 -0.040449 
-0.055345 -0.060871 -0.064921 -0.068221 -0.070896 -0.072906 -0.074127 -0.074829 -0.049577 -0.046922 -0.045226 -0.043906 -0.0425 -0.041718 -0.041234 
-0.02972 -0.03827 -0.043893 -0.048658 -0.053186 -0.05658 -0.060022 -0.062728 -0.043836 -0.041584 -0.040977 -0.039506 -0.038354 -0.037981 -0.037118 
-0.00553 -0.014266 -0.019435 -0.02522 -0.030234 -0.035046 -0.039334 -0.043926 -0.034514 -0.033085 -0.032974 -0.031892 -0.030783 -0.030552 -0.030149 
0.015946 0.008741 0.00402 -0.001199 -0.006616 -0.011404 -0.015932 -0.022008 -0.02242 -0.021831 -0.021942 -0.022209 -0.020633 -0.021108 -0.020753 
0.040605 0.033019 0.027998 0.023187 0.017581 0.013429 0.008219 0.001698 -0.007796 -0.007786 -0.008994 -0.009325 -0.008198 -0.009585 -0.009534 
0.061192 0.054922 0.050667 0.04659 0.041371 0.037153 0.032144 0.026293 0.007691 0.007028 0.005203 0.004716 0.005215 0.004192 0.00306 
0.074626 0.071407 0.068433 0.065696 0.061361 0.057124 0.053661 0.048276 0.02275 0.02127 0.019625 0.018582 0.0182 0.017322 0.016189 
0.082309 0.081452 0.079549 0.078536 0.075594 0.072628 0.069816 0.064898 0.035411 0.033388 0.031645 0.030449 0.029249 0.028604 0.027352 
0.07902 0.080689 0.081359 0.082343 0.081319 0.080862 0.078638 0.075397 0.044456 0.041708 0.040102 0.038121 0.036942 0.036512 0.03528 
0.070352 0.073692 0.076072 0.077862 0.078986 0.080013 0.080128 0.078579 0.0497 0.046917 0.045089 0.04341 0.042184 0.040741 0.040254 
0.05603 0.061375 0.064634 0.067946 0.070187 0.072188 0.073842 0.074561 0.049601 0.047409 0.045622 0.044545 0.043239 0.042408 0.041394 
0.031598 0.039552 0.045004 0.050026 0.053573 0.057529 0.059859 0.063042 0.044045 0.042101 0.041082 0.040118 0.03842 0.038468 0.037874 
0.006221 0.014677 0.020723 0.026054 0.031103 0.035918 0.039941 0.044106 0.03491 0.033318 0.03262 0.0323 0.030672 0.030079 0.030481 
-0.017581 -0.009946 -0.004273 0.001223 0.006417 0.011202 0.016329 0.021732 0.022377 0.021649 0.021735 0.021201 0.020459 0.0206 0.020734 
-0.040615 -0.033749 -0.028269 -0.023742 -0.018302 -0.013386 -0.008304 -0.001894 0.007102 0.007522 0.008686 0.008725 0.008043 0.008779 0.009244 
-0.060573 -0.05454 -0.050289 -0.046646 -0.041326 -0.037122 -0.032176 -0.026102 -0.008046 -0.007121 -0.005521 -0.00457 -0.004917 -0.004413 -0.003703 
-0.076184 -0.071675 -0.068881 -0.065499 -0.061103 -0.058067 -0.053619 -0.047882 -0.022581 -0.021372 -0.019475 -0.018838 -0.018429 -0.017153 -0.016547 
-0.082043 -0.08054 -0.079776 -0.07825 -0.075157 -0.072984 -0.069741 -0.064813 -0.035735 -0.034079 -0.031744 -0.030482 -0.029813 -0.027929 -0.027511 
-0.078389 -0.080237 -0.081228 -0.08221 -0.081256 -0.080162 -0.078354 -0.075313 -0.044728 -0.042528 -0.040223 -0.03844 -0.037137 -0.035591 -0.035334 
-0.070321 -0.074097 -0.076119 -0.078574 -0.079077 -0.079744 -0.079644 -0.0789 -0.049647 -0.04668 -0.045404 -0.043633 -0.041927 -0.04115 -0.040268 
-0.055083 -0.060648 -0.06429 -0.067587 -0.069607 -0.071796 -0.073587 -0.074986 -0.049729 -0.047242 -0.046256 -0.04443 -0.042895 -0.042459 -0.04148 
-0.030628 -0.038513 -0.043925 -0.048664 -0.052632 -0.056154 -0.059322 -0.062706 -0.044185 -0.042287 -0.041139 -0.040002 -0.03843 -0.038104 -0.037471 
-0.005872 -0.01363 -0.020034 -0.025533 -0.030086 -0.034965 -0.039067 -0.044211 -0.03503 -0.033207 -0.03318 -0.032486 -0.031045 -0.031143 -0.03063 
0.01634 0.00937 0.003778 -0.001034 -0.006312 -0.011242 -0.016003 -0.021892 -0.022461 -0.0219 -0.022391 -0.021988 -0.021338 -0.021643 -0.021336 
0.040632 0.033012 0.028477 0.024048 0.018135 0.013508 0.008273 0.002257 -0.007664 -0.007961 -0.008597 -0.008719 -0.008632 -0.008995 -0.00923 
0.061305 0.054964 0.05057 0.046518 0.041598 0.037071 0.032064 0.025868 0.007567 0.006778 0.005416 0.004562 0.004787 0.004243 0.003349 
0.075462 0.071391 0.068353 0.065225 0.061179 0.057513 0.053413 0.047771 0.022848 0.021162 0.019665 0.018009 0.017986 0.017083 0.016244 
0.082517 0.081042 0.08018 0.078644 0.075642 0.073065 0.069792 0.065374 0.035677 0.033852 0.031749 0.030332 0.029409 0.02847 0.02751 
0.07868 0.08058 0.081601 0.082101 0.081493 0.080545 0.078796 0.075905 0.044884 0.042636 0.03986 0.038867 0.037402 0.036541 0.035266 
0.070015 0.073358 0.075788 0.077789 0.078797 0.079587 0.079671 0.079229 0.049983 0.047392 0.045104 0.044003 0.042513 0.04128 0.040347 
0.055872 0.060931 0.064423 0.068025 0.069749 0.071812 0.073456 0.075132 0.049446 0.04747 0.045953 0.044667 0.043066 0.042152 0.041261 
0.031786 0.039522 0.044856 0.049654 0.053381 0.056965 0.060036 0.062842 0.044446 0.042708 0.041735 0.040553 0.039123 0.038443 0.037502 
0.005627 0.01387 0.02037 0.025488 0.030902 0.035604 0.039292 0.044338 0.035392 0.033856 0.033376 0.032726 0.031667 0.030927 0.030721 
-0.018536 -0.011036 -0.005188 0.000232 0.005658 0.01077 0.015382 0.022244 0.022386 0.021642 0.022209 0.021404 0.020636 0.021053 0.02122 
-0.040673 -0.033968 -0.029141 -0.024419 -0.01906 -0.014128 -0.008853 -0.00248 0.007811 0.007949 0.00934 0.008884 0.008698 0.009269 0.009442 
-0.060387 -0.054286 -0.05027 -0.046901 -0.041909 -0.037497 -0.032801 -0.026937 -0.007321 -0.00681 -0.005072 -0.004126 -0.004216 -0.004044 -0.003019 
-0.076176 -0.071737 -0.068569 -0.066141 -0.061945 -0.058242 -0.053778 -0.048162 -0.022451 -0.021422 -0.019205 -0.018114 -0.01815 -0.016839 -0.015586 
-0.081873 -0.081055 -0.079653 -0.078373 -0.075481 -0.072809 -0.06978 -0.065147 -0.035625 -0.033139 -0.030925 -0.03004 -0.029293 -0.027769 -0.027011 
-0.078547 -0.080282 -0.0812 -0.081696 -0.080981 -0.079488 -0.078773 -0.075996 -0.044611 -0.041929 -0.039603 -0.038419 -0.037006 -0.035967 -0.034951 
-0.0709 -0.073636 -0.076183 -0.078354 -0.079213 -0.079831 -0.079751 -0.079021 -0.049563 -0.047455 -0.045023 -0.043844 -0.042076 -0.04106 -0.039772 
-0.054792 -0.060118 -0.064417 -0.06747 -0.06986 -0.072407 -0.073245 -0.074468 -0.050287 -0.047814 -0.04592 -0.044551 -0.042909 -0.042261 -0.041064 
-0.030014 -0.038017 -0.043918 -0.048459 -0.052788 -0.056347 -0.058921 -0.062802 -0.044472 -0.042526 -0.041545 -0.040172 -0.038781 -0.038212 -0.037691 
-0.006633 -0.014042 -0.019851 -0.025443 -0.030541 -0.03521 -0.039205 -0.044253 -0.034604 -0.033503 -0.033541 -0.032793 -0.031545 -0.031343 -0.031296 
0.015748 0.00876 0.003345 -0.001619 -0.006695 -0.011696 -0.016451 -0.021635 -0.022788 -0.022115 -0.022548 -0.022255 -0.021511 -0.022033 -0.021836 
0.041067 0.033705 0.028164 0.023396 0.017995 0.013035 0.008464 0.001824 -0.007977 -0.007932 -0.009266 -0.008892 -0.008524 -0.009195 -0.009512 
0.061393 0.056008 0.051474 0.047453 0.041868 0.03706 0.032444 0.025588 0.007793 0.007078 0.004922 0.0049 0.004888 0.00396 0.003505 
0.0753 0.071474 0.068503 0.066102 0.061798 0.057867 0.053722 0.047972 0.022926 0.02133 0.01941 0.018518 0.018054 0.016994 0.016443 
0.081745 0.080218 0.079022 0.07794 0.075373 0.073036 0.07018 0.065645 0.035636 0.033834 0.031253 0.030155 0.029596 0.028867 0.027322 
0.077708 0.079849 0.08111 0.081676 0.080611 0.080449 0.078461 0.07626 0.044432 0.04214 0.039547 0.038474 0.037236 0.036429 0.034761 
0.069788 0.073078 0.075858 0.077773 0.078751 0.079521 0.079333 0.079004 0.049666 0.046878 0.045127 0.044004 0.042036 0.040938 0.040022 
0.055884 0.060625 0.064386 0.067748 0.070102 0.071598 0.073666 0.074647 0.050005 0.04742 0.045897 0.044577 0.043194 0.042095 0.041574 
0.032468 0.039667 0.045027 0.049827 0.053499 0.056978 0.059842 0.063062 0.044956 0.042602 0.041699 0.040323 0.03917 0.038513 0.03788 
0.00642 0.014316 0.020748 0.026125 0.03109 0.035867 0.039538 0.044297 0.035064 0.034001 0.033541 0.03258 0.031086 0.031129 0.03093 
-0.018112 -0.010482 -0.004481 0.001068 0.006148 0.011284 0.016159 0.021634 0.021928 0.021662 0.022313 0.021523 0.02048 0.020725 0.020979 
-0.040309 -0.033258 -0.028281 -0.023853 -0.018351 -0.01354 -0.008672 -0.002439 0.007485 0.007524 0.00902 0.008847 0.008407 0.008887 0.008879 
-0.060403 -0.054411 -0.050023 -0.046722 -0.041462 -0.037108 -0.032526 -0.026798 -0.008282 -0.007228 -0.005914 -0.005554 -0.005196 -0.004394 -0.003725 
-0.075942 -0.071942 -0.069067 -0.065795 -0.061629 -0.057749 -0.053612 -0.04846 -0.023469 -0.02233 -0.020033 -0.019439 -0.018868 -0.018189 -0.016928 
-0.081832 -0.080459 -0.079835 -0.078169 -0.075003 -0.072863 -0.070159 -0.065388 -0.035861 -0.034264 -0.03179 -0.030248 -0.029872 -0.028816 -0.028005 
-0.078131 -0.079898 -0.080731 -0.081536 -0.08069 -0.080088 -0.078619 -0.076002 -0.044919 -0.042473 -0.040409 -0.038938 -0.037639 -0.03631 -0.035665 
-0.070122 -0.073887 -0.076072 -0.078198 -0.078943 -0.079251 -0.07945 -0.078762 -0.049704 -0.04718 -0.045189 -0.043793 -0.042335 -0.041331 -0.040672 
-0.055597 -0.060496 -0.064497 -0.067905 -0.069363 -0.071495 -0.073461 -0.074324 -0.049584 -0.046938 -0.045943 -0.044202 -0.042975 -0.041915 -0.041323 
-0.029954 -0.038216 -0.043861 -0.048662 -0.05254 -0.05619 -0.058906 -0.06215 -0.043907 -0.041807 -0.040973 -0.040265 -0.038531 -0.037589 -0.037297 
-0.005065 -0.014119 -0.019876 -0.025153 -0.030479 -0.034765 -0.038785 -0.04306 -0.034018 -0.03294 -0.032206 -0.031552 -0.030503 -0.030108 -0.029999 
0.016071 0.008829 0.00364 -0.001141 -0.006329 -0.011242 -0.016002 -0.020931 -0.021827 -0.021165 -0.021727 -0.020907 -0.020279 -0.020666 -0.020466 
0.040475 0.033273 0.027902 0.023714 0.017987 0.013188 0.008586 0.002538 -0.007099 -0.007198 -0.008419 -0.008608 -0.007823 -0.008681 -0.008879 
0.060368 0.054852 0.050285 0.046511 0.041062 0.036806 0.032055 0.026203 0.008309 0.007084 0.005873 0.005529 0.005343 0.004955 0.004056 
0.074927 0.070799 0.068209 0.065142 0.060924 0.057063 0.053225 0.047918 0.022709 0.02169 0.019722 0.018939 0.018166 0.018004 0.016757 
0.082566 0.080418 0.079427 0.078077 0.075156 0.072352 0.069691 0.064877 0.035632 0.034203 0.03177 0.030159 0.029321 0.028644 0.027815 
0.077658 0.080401 0.080782 0.081883 0.080932 0.079719 0.078382 0.075032 0.044271 0.04143 0.039821 0.038014 0.037207 0.035653 0.035236 
0.069436 0.073729 0.075678 0.077819 0.078623 0.079194 0.079605 0.078665 0.048615 0.046368 0.044792 0.042927 0.04204 0.040328 0.039746 
0.056465 0.061047 0.064749 0.06747 0.069953 0.071993 0.07301 0.074468 0.049376 0.047354 0.045633 0.044262 0.042647 0.041945 0.041407 
0.032561 0.039707 0.045045 0.049309 0.053653 0.056861 0.059298 0.062045 0.044222 0.041856 0.041271 0.040048 0.038511 0.037956 0.037639 
0.005619 0.014627 0.020576 0.02575 0.030837 0.035535 0.040064 0.044161 0.034706 0.033378 0.033101 0.031961 0.031013 0.030353 0.03032 
-0.019216 -0.010691 -0.005067 0.000467 0.005726 0.011282 0.01607 0.022015 0.022509 0.021635 0.021189 0.021163 0.020353 0.0205 0.020615 
-0.041045 -0.034537 -0.029367 -0.024729 -0.01916 -0.013906 -0.009025 -0.002806 0.00692 0.007098 0.007878 0.008287 0.007833 0.008277 0.008615 
-0.060248 -0.054747 -0.050344 -0.047098 -0.042001 -0.037497 -0.032623 -0.02714 -0.008869 -0.007504 -0.005624 -0.005229 -0.0055 -0.004525 -0.003756 
-0.076014 -0.071966 -0.068502 -0.06558 -0.061477 -0.057891 -0.054215 -0.048744 -0.023093 -0.021919 -0.019736 -0.018836 -0.019112 -0.017333 -0.016997 
-0.082593 -0.081238 -0.079731 -0.078618 -0.075483 -0.072977 -0.07048 -0.065352 -0.035678 -0.033782 -0.031375 -0.030211 -0.029592 -0.028446 -0.028147 
-0.078821 -0.080007 -0.081422 -0.082273 -0.081355 -0.080159 -0.07906 -0.075212 -0.044259 -0.041564 -0.039538 -0.038031 -0.036342 -0.035845 -0.034737 
-0.070057 -0.073738 -0.076188 -0.078089 -0.079214 -0.079965 -0.080088 -0.078558 -0.049182 -0.046566 -0.04471 -0.04312 -0.041509 -0.040687 -0.039438 
-0.054947 -0.060686 -0.063751 -0.067694 -0.069569 -0.072235 -0.073441 -0.07481 -0.049515 -0.047044 -0.045588 -0.044174 -0.042606 -0.041992 -0.041099 
-0.030152 -0.038293 -0.043614 -0.048382 -0.05243 -0.056171 -0.059319 -0.062133 -0.043462 -0.041677 -0.041193 -0.039636 -0.037816 -0.037573 -0.037428 
-0.00547 -0.013872 -0.019911 -0.024868 -0.030501 -0.035009 -0.039026 -0.043104 -0.033973 -0.033037 -0.03257 -0.031497 -0.030196 -0.029989 -0.029953 
0.01667 0.009479 0.004207 -0.00125 -0.006609 -0.011233 -0.015399 -0.021294 -0.021466 -0.02141 -0.021616 -0.021223 -0.02029 -0.020874 -0.020339 
0.041162 0.034051 0.028862 0.024184 0.018333 0.013801 0.009051 0.002809 -0.006758 -0.007328 -0.008414 -0.008444 -0.007618 -0.008773 -0.00875 
0.061272 0.055891 0.0514 0.047199 0.041968 0.037246 0.03287 0.026338 0.007567 0.007132 0.005748 0.005003 0.005449 0.004675 0.004202 
0.076056 0.072072 0.068891 0.0659 0.06198 0.058227 0.054383 0.047388 0.022985 0.021889 0.019321 0.018557 0.018298 0.017613 0.01716 
0.082753 0.081117 0.079671 0.079223 0.076175 0.073896 0.070575 0.065383 0.036173 0.033847 0.031336 0.030884 0.029483 0.028586 0.027873 
0.077368 0.079888 0.080992 0.082039 0.081285 0.080394 0.078702 0.076108 0.044081 0.041523 0.039888 0.038609 0.036912 0.035757 0.034759 
0.068886 0.072532 0.075109 0.077355 0.078506 0.079348 0.079437 0.07833 0.048944 0.046483 0.044799 0.042909 0.041623 0.040551 0.039333 
0.05536 0.060459 0.063943 0.067449 0.069881 0.071924 0.073148 0.074347 0.049053 0.047027 0.045528 0.044141 0.042692 0.042122 0.040982 
0.032295 0.039759 0.044797 0.049594 0.053693 0.056754 0.059519 0.063206 0.04383 0.042305 0.041386 0.040255 0.038704 0.038273 0.037645 
0.006602 0.014769 0.020479 0.026082 0.031388 0.035456 0.03988 0.044011 0.034424 0.033146 0.032937 0.032211 0.030617 0.030694 0.030408 
-0.018067 -0.010226 -0.004525 0.000509 0.006516 0.011465 0.015903 0.021096 0.021771 0.021234 0.02132 0.021139 0.019605 0.020558 0.020283 
-0.040792 -0.03432 -0.029082 -0.024487 -0.018917 -0.013605 -0.00918 -0.002211 0.007448 0.007512 0.008202 0.00803 0.007448 0.008359 0.008437 
-0.061227 -0.054883 -0.051026 -0.04688 -0.042292 -0.037858 -0.032967 -0.026419 -0.008575 -0.007738 -0.006209 -0.005479 -0.005452 -0.005081 -0.004312 
-0.076591 -0.071436 -0.068443 -0.065661 -0.062116 -0.058177 -0.053918 -0.048485 -0.023549 -0.021898 -0.020131 -0.018767 -0.018535 -0.018064 -0.017318 
-0.081795 -0.080476 -0.078944 -0.077894 -0.075707 -0.07283 -0.069483 -0.065225 -0.035775 -0.033628 -0.031373 -0.030328 -0.029439 -0.028434 -0.027717 
-0.07778 -0.079445 -0.080677 -0.0811 -0.080214 -0.079929 -0.078356 -0.076053 -0.044932 -0.042063 -0.040055 -0.038647 -0.03752 -0.036377 -0.035157 
-0.069828 -0.073566 -0.075857 -0.077777 -0.078397 -0.079398 -0.079501 -0.078945 -0.04933 -0.046794 -0.045166 -0.043944 -0.042486 -0.041581 -0.040589 
-0.055261 -0.061172 -0.06437 -0.068022 -0.070304 -0.072094 -0.072952 -0.07416 -0.049317 -0.047239 -0.045445 -0.044639 -0.042948 -0.041998 -0.041535 
-0.030037 -0.038555 -0.043933 -0.048765 -0.052941 -0.056541 -0.059544 -0.062129 -0.043688 -0.041659 -0.040743 -0.039658 -0.038508 -0.037237 -0.037164 
-0.005389 -0.014002 -0.019815 -0.025238 -0.030275 -0.035237 -0.039594 -0.043265 -0.033619 -0.032544 -0.032504 -0.031635 -0.030523 -0.030067 -0.029901 
0.016506 0.009278 0.003625 -0.00153 -0.006393 -0.011448 -0.015718 -0.021333 -0.021474 -0.020929 -0.021458 -0.021163 -0.020102 -0.020643 -0.020261 
0.041783 0.034011 0.028485 0.023837 0.018354 0.013903 0.009053 0.00236 -0.006779 -0.00676 -0.00785 -0.008386 -0.007715 -0.007949 -0.008397 
0.061437 0.055451 0.051249 0.047243 0.041892 0.037671 0.033082 0.026357 0.008279 0.007191 0.00593 0.004883 0.005307 0.004722 0.00417 
0.075114 0.071439 0.068434 0.066058 0.061865 0.058184 0.054047 0.047845 0.023296 0.021492 0.019727 0.018861 0.018434 0.017517 0.016885 
0.082345 0.080448 0.079543 0.078248 0.075496 0.073128 0.069427 0.065442 0.036536 0.033906 0.031982 0.030671 0.029849 0.028979 0.027745 
0.077288 0.079401 0.080969 0.08116 0.080445 0.079669 0.077868 0.07562 0.044445 0.041384 0.039821 0.037984 0.037466 0.035554 0.035087 
0.069171 0.072691 0.075106 0.077529 0.077889 0.079182 0.079004 0.078166 0.048906 0.046284 0.044872 0.043323 0.042356 0.040549 0.040092 
0.055822 0.060523 0.064022 0.067296 0.069013 0.071541 0.072803 0.074598 0.049318 0.047388 0.046043 0.044739 0.04322 0.042462 0.041328 
0.031547 0.039452 0.044555 0.048967 0.053274 0.056198 0.059474 0.062842 0.044132 0.042577 0.041427 0.040419 0.038954 0.038487 0.037472 
0.005729 0.014582 0.020465 0.025819 0.031244 0.035488 0.039569 0.043882 0.03471 0.033 0.032852 0.03248 0.03128 0.030942 0.030372 
-0.018555 -0.010164 -0.004435 0.000444 0.005847 0.011249 0.01562 0.021046 0.02164 0.020634 0.021429 0.021132 0.02018 0.020195 0.020553 
-0.04093 -0.034336 -0.02924 -0.024604 -0.019202 -0.013967 -0.008979 -0.002921 0.00696 0.007514 0.008488 0.008221 0.00738 0.008355 0.008835 
-0.060562 -0.055213 -0.050782 -0.047062 -0.041989 -0.037661 -0.032998 -0.026623 -0.008398 -0.007227 -0.005512 -0.005001 -0.005472 -0.004342 -0.003876 
-0.076433 -0.071668 -0.068574 -0.066245 -0.061605 -0.0585 -0.054345 -0.048758 -0.023564 -0.022097 -0.019726 -0.019243 -0.018526 -0.017982 -0.016964 
-0.082084 -0.080873 -0.079811 -0.078562 -0.075413 -0.073398 -0.07009 -0.065302 -0.035929 -0.033594 -0.031557 -0.03085 -0.029518 -0.028658 -0.027557 
-0.078435 -0.08027 -0.081237 -0.081716 -0.080845 -0.080122 -0.07896 -0.075094 -0.044517 -0.041949 -0.040351 -0.037981 -0.037371 -0.036226 -0.035104 
-0.071032 -0.074025 -0.076558 -0.078338 -0.079097 -0.079691 -0.080044 -0.078675 -0.049403 -0.047012 -0.045716 -0.043529 -0.042613 -0.041065 -0.040461 
-0.05537 -0.060988 -0.064963 -0.067802 -0.070278 -0.072018 -0.073216 -0.074595 -0.050022 -0.047464 -0.046275 -0.045045 -0.043161 -0.041779 -0.041288 
-0.029644 -0.037957 -0.043435 -0.048215 -0.052413 -0.056073 -0.058814 -0.062686 -0.044514 -0.042379 -0.041355 -0.039577 -0.038046 -0.037992 -0.037159 
-0.005436 -0.013417 -0.019047 -0.024681 -0.029733 -0.034722 -0.038609 -0.043905 -0.034537 -0.03311 -0.033034 -0.03165 -0.030576 -0.030603 -0.030505 
0.016277 0.009675 0.004097 -0.000716 -0.006177 -0.011216 -0.01545 -0.021166 -0.022225 -0.0215 -0.022302 -0.02197 -0.020996 -0.021117 -0.021114 
0.040684 0.034411 0.028426 0.024141 0.018687 0.01371 0.009119 0.002921 -0.006948 -0.007409 -0.008359 -0.008447 -0.008089 -0.008985 -0.008718 
0.060503 0.055007 0.050533 0.046866 0.04187 0.037573 0.032936 0.027103 0.008494 0.007425 0.005884 0.00548 0.005132 0.004583 0.004277 
0.075607 0.070925 0.06819 0.065498 0.061532 0.057812 0.053859 0.048326 0.022875 0.0217 0.019619 0.018678 0.018339 0.017496 0.016626 
0.083559 0.08139 0.079979 0.07836 0.075945 0.072778 0.069818 0.065127 0.035769 0.033976 0.031894 0.030375 0.030203 0.028631 0.027443 
0.078032 0.080001 0.081199 0.082065 0.080919 0.080071 0.078548 0.076066 0.044682 0.042146 0.039797 0.038406 0.037493 0.035916 0.035097 
0.069308 0.073075 0.075431 0.077915 0.078262 0.0796 0.079754 0.078734 0.049652 0.046991 0.045164 0.0437 0.04197 0.040546 0.040041 
0.05621 0.06163 0.064841 0.067419 0.070016 0.072073 0.073451 0.073976 0.049719 0.04751 0.046351 0.044562 0.042914 0.042285 0.041622 
0.031562 0.0392 0.045039 0.049141 0.053606 0.057164 0.05965 0.062418 0.044417 0.042423 0.041644 0.04018 0.038592 0.038395 0.037942 
0.00582 0.013851 0.020346 0.025674 0.030803 0.035957 0.039453 0.044069 0.03481 0.033338 0.033405 0.032465 0.030925 0.030615 0.030709 
-0.017861 -0.010473 -0.004466 0.000621 0.006059 0.010986 0.015573 0.021355 0.021906 0.021461 0.021428 0.021252 0.020483 0.020599 0.020818 
-0.0412 -0.034732 -0.029234 -0.024521 -0.019072 -0.014258 -0.009158 -0.002862 0.00766 0.007781 0.008156 0.008494 0.008091 0.008678 0.008646 
-0.060682 -0.054779 -0.051043 -0.047038 -0.042499 -0.037464 -0.033191 -0.026697 -0.007917 -0.007019 -0.005471 -0.004819 -0.005105 -0.004129 -0.00356 
-0.075834 -0.071446 -0.068832 -0.065762 -0.06174 -0.058133 -0.054163 -0.04837 -0.02355 -0.021894 -0.020025 -0.019056 -0.018329 -0.017202 -0.016457 
-0.081977 -0.08094 -0.079874 -0.078194 -0.075238 -0.073492 -0.069971 -0.065548 -0.036165 -0.034176 -0.031635 -0.030554 -0.029568 -0.028473 -0.028135 
-0.078154 -0.080118 -0.081068 -0.081514 -0.08085 -0.080213 -0.078627 -0.075913 -0.044746 -0.042217 -0.03966 -0.038284 -0.037747 -0.036285 -0.035404 
-0.070318 -0.073885 -0.075952 -0.078 -0.078803 -0.079299 -0.079391 -0.078632 -0.049167 -0.046769 -0.044872 -0.043757 -0.042293 -0.04084 -0.04021 
-0.054831 -0.06008 -0.064095 -0.067318 -0.069527 -0.071872 -0.073014 -0.074174 -0.049364 -0.047285 -0.045659 -0.044424 -0.042541 -0.041577 -0.041558 
-0.029609 -0.037494 -0.043046 -0.048176 -0.052099 -0.056259 -0.058754 -0.062155 -0.044249 -0.042215 -0.041088 -0.039668 -0.038397 -0.037783 -0.037557 
-0.005355 -0.013681 -0.019055 -0.024763 -0.029926 -0.034509 -0.038617 -0.043707 -0.034533 -0.033366 -0.032731 -0.03223 -0.030827 -0.030923 -0.030548 
0.01627 0.009267 0.004076 -0.000775 -0.006314 -0.010799 -0.015581 -0.021733 -0.022365 -0.021914 -0.022481 -0.021836 -0.020731 -0.021393 -0.020903 
0.040891 0.033577 0.028391 0.023652 0.018228 0.013844 0.008916 0.002577 -0.007757 -0.007623 -0.009083 -0.008924 -0.008026 -0.008631 -0.00885 
0.06199 0.055499 0.051137 0.047093 0.041556 0.037676 0.032769 0.026607 0.007936 0.007321 0.006032 0.004769 0.005095 0.004754 0.003754 
0.075944 0.072014 0.06894 0.066244 0.061896 0.058435 0.054357 0.047908 0.023401 0.021824 0.019876 0.01914 0.0179 0.017595 0.016575 
0.082376 0.080893 0.079829 0.078671 0.075998 0.073429 0.07004 0.065791 0.036683 0.034251 0.031999 0.030978 0.02994 0.028941 0.027658 
0.077727 0.079321 0.080742 0.081697 0.080576 0.079776 0.078028 0.076405 0.044555 0.042018 0.040164 0.038219 0.03733 0.036112 0.035157 
0.069074 0.072739 0.075099 0.077272 0.078156 0.079032 0.079326 0.078248 0.049075 0.04657 0.044317 0.043207 0.041488 0.040677 0.039967 
0.056111 0.061462 0.064758 0.067722 0.069743 0.071816 0.072986 0.074061 0.050089 0.047597 0.045827 0.04479 0.043195 0.042431 0.041236 
0.032071 0.039991 0.045144 0.049513 0.053343 0.056682 0.059505 0.062983 0.044485 0.042462 0.041869 0.040744 0.039095 0.038497 0.03797 
0.00551 0.01416 0.020184 0.025304 0.03107 0.035556 0.039893 0.043987 0.034481 0.032863 0.03265 0.032342 0.030852 0.03042 0.03092 
-0.018529 -0.010398 -0.004561 0.000239 0.006277 0.011186 0.015859 0.020911 0.021429 0.020853 0.021426 0.021074 0.020136 0.019976 0.020567 
-0.041008 -0.033737 -0.029018 -0.024501 -0.018649 -0.013761 -0.009008 -0.002886 0.006751 0.007174 0.008378 0.008346 0.007833 0.008059 0.008612 
-0.06052 -0.054893 -0.050996 -0.046869 -0.041952 -0.037218 -0.033001 -0.026465 -0.007992 -0.007098 -0.005863 -0.005478 -0.005095 -0.004627 -0.003822 
-0.076494 -0.072299 -0.069175 -0.066122 -0.061973 -0.058183 -0.054253 -0.048146 -0.023398 -0.021663 -0.019969 -0.019724 -0.018746 -0.017725 -0.016886 
-0.082673 -0.081098 -0.080329 -0.07882 -0.075704 -0.073734 -0.070169 -0.065333 -0.03614 -0.034117 -0.032117 -0.030797 -0.030005 -0.028776 -0.027948 
-0.078667 -0.080288 -0.081433 -0.082136 -0.081483 -0.080806 -0.079274 -0.075795 -0.044536 -0.042068 -0.040017 -0.038349 -0.037492 -0.036673 -0.035232 
-0.070872 -0.07418 -0.076056 -0.078544 -0.079471 -0.080008 -0.080561 -0.079014 -0.049604 -0.046823 -0.044742 -0.043891 -0.042297 -0.041386 -0.040234 
-0.055353 -0.060749 -0.064209 -0.067547 -0.069987 -0.072296 -0.073736 -0.074523 -0.04943 -0.047525 -0.045785 -0.04456 -0.042956 -0.041685 -0.041457 
-0.030456 -0.038432 -0.043768 -0.048283 -0.052845 -0.056629 -0.059204 -0.062038 -0.04393 -0.042195 -0.041262 -0.040012 -0.038603 -0.037831 -0.037281 
-0.006136 -0.014368 -0.019943 -0.025029 -0.030304 -0.035253 -0.039168 -0.043725 -0.034891 -0.033405 -0.033134 -0.032527 -0.030857 -0.030593 -0.030276 
0.016874 0.009373 0.003853 -0.000821 -0.00623 -0.011321 -0.015888 -0.021428 -0.022054 -0.021495 -0.021892 -0.021261 -0.020501 -0.020383 -0.020688 
0.041884 0.034465 0.028766 0.024204 0.018739 0.013926 0.009287 0.002985 -0.006449 -0.006576 -0.008097 -0.007993 -0.007628 -0.008309 -0.008372 
0.061386 0.055297 0.051165 0.046795 0.042155 0.037498 0.033099 0.026957 0.008691 0.007613 0.005812 0.005175 0.005939 0.004683 0.004205 
0.075744 0.071345 0.068702 0.065485 0.061737 0.057887 0.053874 0.048456 0.023328 0.021902 0.020011 0.019221 0.018837 0.017847 0.017018 
0.083274 0.081422 0.080031 0.078905 0.076014 0.073387 0.070316 0.065464 0.036723 0.034752 0.032466 0.031204 0.030086 0.029043 0.028262 
0.077259 0.079225 0.080703 0.081483 0.080437 0.080217 0.07862 0.076195 0.045106 0.042526 0.040358 0.039004 0.037774 0.036357 0.035235 
0.068132 0.071626 0.074107 0.076696 0.07752 0.078766 0.078938 0.078826 0.049034 0.047255 0.045054 0.044002 0.042258 0.0411 0.039829 
0.055667 0.060859 0.063336 0.067439 0.069592 0.071066 0.072655 0.073754 0.049172 0.047484 0.046073 0.044726 0.043504 0.04244 0.041495 
0.031759 0.039927 0.044888 0.049196 0.053025 0.056509 0.05908 0.062011 0.044244 0.042113 0.041682 0.040447 0.039221 0.038305 0.038019 
0.005453 0.014199 0.020501 0.025566 0.030562 0.035358 0.039543 0.043664 0.034938 0.033283 0.033005 0.032445 0.030858 0.030982 0.030555 
-0.018673 -0.010701 -0.004956 0.000389 0.005851 0.010938 0.016034 0.021161 0.021663 0.020899 0.021378 0.021352 0.020475 0.020736 0.02042 
-0.040551 -0.033858 -0.028672 -0.024457 -0.019051 -0.013686 -0.008878 -0.002788 0.006962 0.007132 0.008175 0.008675 0.007993 0.008317 0.008855 
-0.059786 -0.054436 -0.050187 -0.046287 -0.04161 -0.037092 -0.032591 -0.026722 -0.007993 -0.007408 -0.005864 -0.005117 -0.00521 -0.004328 -0.003944 
-0.076245 -0.072083 -0.068726 -0.065946 -0.061586 -0.05769 -0.053736 -0.048767 -0.023856 -0.022733 -0.020242 -0.019446 -0.018844 -0.01794 -0.017639 
-0.082092 -0.080891 -0.079704 -0.07889 -0.075615 -0.073026 -0.069875 -0.065888 -0.036628 -0.034634 -0.031942 -0.031035 -0.030602 -0.028953 -0.028728 
-0.077617 -0.079388 -0.08079 -0.081539 -0.080739 -0.08004 -0.07858 -0.075929 -0.045167 -0.042526 -0.039986 -0.038866 -0.037782 -0.036354 -0.035757 
-0.069971 -0.073061 -0.075537 -0.077676 -0.078469 -0.079117 -0.07958 -0.07914 -0.050194 -0.047305 -0.045412 -0.044205 -0.042543 -0.042049 -0.04042 
-0.055028 -0.060344 -0.063957 -0.06732 -0.069228 -0.071514 -0.073046 -0.074422 -0.049546 -0.046903 -0.046042 -0.04503 -0.0435 -0.042708 -0.041806 
-0.029809 -0.038055 -0.043225 -0.048175 -0.052423 -0.055831 -0.058685 -0.061643 -0.044123 -0.041803 -0.041307 -0.039825 -0.038686 -0.03822 -0.037803 
-0.005063 -0.013271 -0.019102 -0.024431 -0.030069 -0.034506 -0.038649 -0.043634 -0.034711 -0.033565 -0.033287 -0.031758 -0.031287 -0.030988 -0.030131 
0.016805 0.009777 0.004394 -0.000759 -0.005564 -0.010632 -0.015564 -0.02144 -0.021624 -0.021601 -0.022035 -0.021681 -0.021187 -0.020825 -0.020633 
0.041587 0.034256 0.029148 0.024234 0.019161 0.014451 0.009464 0.003217 -0.007117 -0.006862 -0.008254 -0.008452 -0.007673 -0.008217 -0.00861 
0.061943 0.05579 0.051368 0.047922 0.042367 0.037794 0.033593 0.026993 0.00829 0.007861 0.006283 0.00537 0.005834 0.004954 0.004365 
0.076071 0.071835 0.069073 0.066329 0.062375 0.058308 0.054352 0.048372 0.023635 0.021893 0.020419 0.018822 0.018603 0.017668 0.016853 
0.083299 0.081596 0.080495 0.078991 0.076608 0.073636 0.070405 0.065483 0.036343 0.034246 0.031878 0.030759 0.029918 0.028827 0.02809 
0.077046 0.079637 0.080616 0.081734 0.081235 0.080251 0.079009 0.075979 0.044926 0.042359 0.039685 0.038224 0.03711 0.036164 0.035431 
0.067333 0.07136 0.073878 0.076474 0.077491 0.078671 0.0788 0.079024 0.049447 0.046606 0.044886 0.042867 0.041827 0.040946 0.039829 
0.054886 0.059596 0.06311 0.06682 0.068678 0.070463 0.071718 0.074219 0.049504 0.047127 0.045917 0.044464 0.043148 0.04259 0.041462 
0.031114 0.039069 0.043922 0.048807 0.053017 0.055896 0.058661 0.061968 0.044164 0.042382 0.041306 0.040491 0.038475 0.038074 0.037905 
0.005473 0.014069 0.019689 0.025011 0.030388 0.035009 0.039094 0.043903 0.03472 0.033395 0.0332 0.03244 0.030807 0.030556 0.030896 
-0.018095 -0.010755 -0.005094 0.000352 0.005448 0.010374 0.015508 0.021759 0.022432 0.021556 0.02228 0.021572 0.020724 0.021077 0.021256 
-0.0415 -0.034239 -0.029183 -0.024488 -0.019159 -0.014336 -0.009397 -0.002408 0.00771 0.007538 0.008635 0.008913 0.008309 0.008713 0.009348 
-0.060877 -0.054888 -0.050384 -0.047055 -0.042306 -0.037563 -0.033408 -0.026851 -0.008176 -0.007541 -0.005718 -0.004903 -0.004816 -0.004175 -0.003405 
-0.075689 -0.071834 -0.068461 -0.065789 -0.061968 -0.057861 -0.05379 -0.049076 -0.023667 -0.022092 -0.019854 -0.019352 -0.018454 -0.017286 -0.016828 
-0.082155 -0.080943 -0.079937 -0.078545 -0.076079 -0.073206 -0.069862 -0.06556 -0.036177 -0.033965 -0.031921 -0.030916 -0.029789 -0.028815 -0.027824 
-0.078219 -0.080356 -0.081264 -0.082199 -0.081614 -0.080698 -0.079099 -0.075714 -0.044819 -0.042219 -0.040287 -0.038568 -0.037621 -0.036494 -0.035497 
-0.069823 -0.073221 -0.075458 -0.077769 -0.078579 -0.079491 -0.079569 -0.079013 -0.04986 -0.046906 -0.045234 -0.043795 -0.042296 -0.041218 -0.040853 
-0.054947 -0.060063 -0.063737 -0.067002 -0.069532 -0.071713 -0.072766 -0.073688 -0.049466 -0.047195 -0.045537 -0.044447 -0.042346 -0.042102 -0.0412 
-0.029764 -0.038345 -0.043833 -0.048629 -0.052779 -0.056386 -0.058813 -0.061551 -0.043717 -0.041987 -0.041091 -0.039366 -0.038009 -0.037857 -0.037134 
-0.004948 -0.01312 -0.019133 -0.024774 -0.029657 -0.034497 -0.038958 -0.044044 -0.034272 -0.032653 -0.033053 -0.031718 -0.030686 -0.0304 -0.030746 
0.016824 0.009896 0.004849 -0.000184 -0.005931 -0.010848 -0.015574 -0.021432 -0.021662 -0.021128 -0.021706 -0.021789 -0.02049 -0.020812 -0.020723 
0.041554 0.033829 0.028594 0.024627 0.018347 0.013993 0.009095 0.002935 -0.007047 -0.007514 -0.008482 -0.008545 -0.007758 -0.008757 -0.008529 
0.06151 0.055596 0.050944 0.047299 0.042254 0.038238 0.032644 0.026793 0.008185 0.00723 0.005503 0.005444 0.005397 0.004363 0.003831 
0.075414 0.071601 0.068782 0.065421 0.061766 0.05818 0.054037 0.048645 0.02312 0.0217 0.019742 0.019069 0.018542 0.017641 0.016709 
0.083094 0.081287 0.079968 0.078489 0.075496 0.072994 0.070252 0.065395 0.036193 0.034022 0.031973 0.030966 0.030021 0.028977 0.027633 
0.07779 0.079597 0.080837 0.081705 0.08107 0.080079 0.078442 0.075708 0.045035 0.042304 0.039914 0.038563 0.037185 0.036331 0.035173 
0.068195 0.071843 0.0746 0.076654 0.0785 0.079066 0.079115 0.078644 0.049068 0.046587 0.044603 0.043092 0.041896 0.040994 0.039925 
0.055178 0.060542 0.06379 0.067168 0.069558 0.07169 0.07284 0.073526 0.048815 0.046585 0.045948 0.044176 0.042935 0.041978 0.040714 
0.031287 0.039265 0.044521 0.049212 0.053128 0.056353 0.059141 0.061355 0.043609 0.041648 0.041209 0.039809 0.038105 0.037971 0.037424 
0.004674 0.013694 0.019867 0.024901 0.030499 0.03477 0.038935 0.043272 0.033918 0.032233 0.03235 0.031574 0.030062 0.030137 0.030142 
-0.018809 -0.010678 -0.005317 -0.000153 0.005373 0.010551 0.015328 0.020961 0.021171 0.02034 0.021265 0.020633 0.019804 0.019712 0.019791 
-0.040771 -0.033882 -0.029417 -0.024916 -0.019221 -0.014425 -0.009442 -0.003331 0.006825 0.007161 0.00767 0.007946 0.007427 0.008281 0.008298 
-0.060911 -0.054423 -0.050623 -0.047205 -0.041904 -0.037556 -0.03314 -0.027 -0.008492 -0.007727 -0.006212 -0.005575 -0.005929 -0.004756 -0.004313 
-0.07611 -0.071985 -0.068468 -0.06581 -0.061655 -0.057806 -0.05371 -0.048329 -0.024219 -0.022372 -0.020115 -0.019691 -0.019036 -0.018529 -0.017105 
-0.081662 -0.081003 -0.079374 -0.078479 -0.075328 -0.072944 -0.069865 -0.065829 -0.036873 -0.034121 -0.032482 -0.030996 -0.030127 -0.02901 -0.028074 
-0.077845 -0.079167 -0.080563 -0.081662 -0.08074 -0.079728 -0.078647 -0.076114 -0.0446 -0.041956 -0.040517 -0.03831 -0.037833 -0.036295 -0.035883 
-0.069778 -0.073101 -0.07557 -0.077427 -0.078549 -0.079063 -0.079317 -0.078189 -0.04868 -0.046312 -0.044968 -0.043446 -0.04204 -0.041082 -0.040117 
-0.054723 -0.060627 -0.063972 -0.06662 -0.069171 -0.071525 -0.072679 -0.07347 -0.0488 -0.046529 -0.045143 -0.043951 -0.042359 -0.041194 -0.040704 
-0.029017 -0.037701 -0.043247 -0.04752 -0.052071 -0.055809 -0.058618 -0.061375 -0.043401 -0.040926 -0.040313 -0.03892 -0.037754 -0.037159 -0.036891 
-0.004622 -0.013467 -0.019187 -0.024662 -0.029875 -0.034358 -0.03866 -0.042641 -0.033264 -0.032121 -0.031849 -0.031353 -0.030105 -0.030345 -0.029608 
0.016954 0.009476 0.004444 -0.000858 -0.005962 -0.010606 -0.014931 -0.02051 -0.020936 -0.020664 -0.020443 -0.020571 -0.019918 -0.019931 -0.019936 
0.041844 0.034713 0.02912 0.024709 0.018873 0.014287 0.009714 0.003091 -0.006659 -0.006063 -0.00729 -0.007014 -0.006773 -0.007459 -0.00801 
0.061067 0.055429 0.051544 0.047536 0.042159 0.037709 0.03297 0.027078 0.009015 0.008183 0.006353 0.006212 0.006086 0.005016 0.004764 
0.075425 0.07089 0.068727 0.065558 0.061547 0.057777 0.053921 0.048935 0.023704 0.022375 0.020374 0.019712 0.018888 0.018157 0.017398 
0.082893 0.081086 0.079294 0.078507 0.075557 0.073091 0.070002 0.065357 0.03604 0.034331 0.032487 0.031223 0.030529 0.029209 0.02816 
0.07714 0.079854 0.080814 0.082082 0.081228 0.080111 0.078465 0.075185 0.044715 0.041322 0.039852 0.037914 0.037165 0.035973 0.035345 
0.06874 0.072396 0.075252 0.07734 0.078336 0.078856 0.079396 0.078309 0.049181 0.046489 0.04402 0.042569 0.041273 0.040677 0.03985 
